Time,ECG,PCG,PPG
0,542,722,38641
10,541,736,38632
20,544,800,38595
30,539,828,38601
40,540,799,38599
50,538,823,38603
60,536,817,38605
70,540,833,38600
80,534,833,38600
90,539,838,38585
100,537,831,38600
110,538,836,38610
120,539,807,38610
130,535,813,38615
140,533,828,38611
150,535,829,38615
160,528,801,38599
170,530,831,38571
180,528,858,38584
190,524,832,38591
200,526,791,38596
210,521,861,38590
220,524,814,38599
230,519,831,38609
240,516,804,38606
250,518,826,38622
260,510,729,38628
270,515,716,38638
280,513,715,38649
290,512,706,38637
300,514,733,38636
310,511,725,38623
320,514,783,38593
330,508,794,38598
340,508,831,38617
350,511,833,38607
360,507,845,38605
370,511,843,38598
380,508,817,38603
390,507,825,38598
400,507,832,38605
410,504,811,38614
420,510,805,38614
430,512,847,38618
440,509,825,38613
450,515,821,38613
460,514,856,38609
470,516,819,38576
480,518,818,38583
490,518,843,38593
500,525,838,38602
510,524,838,38595
520,529,831,38609
530,531,813,38622
540,527,833,38610
550,535,784,38627
560,532,763,38642
570,533,732,38641
580,536,696,38645
590,534,719,38634
600,539,723,38638
610,534,734,38617
620,538,782,38607
630,540,795,38608
640,537,828,38611
650,538,839,38606
660,536,809,38604
670,540,806,38602
680,539,864,38599
690,533,793,38587
700,535,814,38603
710,532,811,38609
720,533,814,38619
730,535,834,38623
740,531,816,38617
750,536,812,38608
760,533,819,38593
770,533,831,38580
780,535,818,38588
790,532,866,38589
800,531,833,38599
810,531,831,38595
820,528,816,38606
830,529,831,38619
840,526,797,38608
850,531,812,38631
860,527,789,38640
870,523,702,38646
880,526,686,38646
890,523,710,38638
900,526,735,38638
910,522,752,38617
920,518,750,38599
930,520,821,38609
940,514,848,38604
950,513,810,38607
960,512,832,38597
970,510,824,38598
980,514,827,38602
990,505,815,38597
1000,510,812,38608
1010,508,784,38617
1020,507,838,38616
1030,512,816,38617
1040,508,804,38611
1050,508,811,38613
1060,510,811,38593
1070,506,802,38580
1080,511,847,38582
1090,510,823,38596
1100,508,810,38602
1110,510,784,38592
1120,505,829,38608
1130,510,841,38612
1140,510,796,38610
1150,510,785,38631
1160,510,784,38632
1170,508,709,38645
1180,511,683,38643
1190,509,726,38631
1200,507,721,38635
1210,511,727,38616
1220,505,734,38605
1230,508,814,38605
1240,506,833,38603
1250,504,822,38605
1260,506,828,38601
1270,503,808,38603
1280,506,841,38598
1290,503,794,38592
1300,502,802,38600
1310,502,823,38621
1320,497,826,38617
1330,502,818,38616
1340,499,816,38612
1350,498,790,38619
1360,501,828,38607
1370,498,826,38578
1380,500,808,38576
1390,499,814,38598
1400,497,822,38604
1410,501,799,38592
1420,498,831,38594
1430,496,850,38617
1440,500,808,38602
1450,494,762,38620
1460,497,778,38641
1470,494,686,38637
1480,497,724,38647
1490,498,731,38635
1500,494,703,38640
1510,497,727,38619
1520,495,758,38596
1530,494,814,38605
1540,495,833,38611
1550,493,806,38605
1560,495,829,38603
1570,491,828,38605
1580,495,804,38604
1590,496,826,38594
1600,493,793,38594
1610,497,826,38614
1620,494,796,38615
1630,493,854,38623
1640,495,804,38614
1650,493,827,38619
1660,494,827,38614
1670,494,832,38582
1680,489,803,38591
1690,494,819,38594
1700,487,828,38603
1710,487,844,38592
1720,489,793,38597
1730,483,811,38614
1740,482,830,38618
1750,477,742,38618
1760,472,822,38636
1770,469,735,38652
1780,464,718,38645
1790,465,695,38642
1800,455,750,38638
1810,448,702,38635
1820,443,746,38605
1830,433,803,38596
1840,423,816,38604
1850,409,807,38603
1860,402,801,38605
1870,395,837,38603
1880,385,831,38609
1890,382,838,38614
1900,378,810,38603
1910,379,832,38612
1920,379,794,38623
1930,376,804,38610
1940,384,826,38626
1950,387,824,38612
1960,389,824,38610
1970,396,844,38608
1980,399,822,38582
1990,404,850,38588
2000,407,827,38601
2010,410,823,38607
2020,420,818,38594
2030,420,793,38605
2040,429,819,38609
2050,433,800,38618
2060,435,828,38640
2070,444,740,38641
2080,450,712,38647
2090,454,696,38644
2100,458,734,38644
2110,459,734,38640
2120,468,728,38623
2130,472,755,38607
2140,481,794,38607
2150,488,815,38606
2160,491,822,38610
2170,502,834,38615
2180,502,814,38606
2190,507,840,38618
2200,511,813,38598
2210,513,785,38627
2220,520,839,38618
2230,522,839,38612
2240,524,815,38619
2250,528,818,38612
2260,532,852,38618
2270,539,805,38598
2280,542,845,38575
2290,542,832,38584
2300,540,830,38594
2310,532,821,38602
2320,530,808,38600
2330,523,844,38602
2340,516,861,38616
2350,516,759,38607
2360,509,802,38626
2370,508,805,38648
2380,511,702,38648
2390,509,725,38639
2400,512,729,38648
2410,510,755,38645
2420,511,693,38630
2430,511,752,38607
2440,509,807,38599
2450,510,858,38615
2460,511,819,38616
2470,512,821,38603
2480,516,829,38609
2490,511,812,38616
2500,512,819,38607
2510,509,804,38619
2520,510,823,38610
2530,510,784,38615
2540,511,805,38617
2550,513,817,38616
2560,518,852,38619
2570,518,822,38600
2580,524,804,38581
2590,526,817,38587
2600,532,848,38592
2610,536,801,38593
2620,541,827,38590
2630,548,861,38605
2640,556,801,38611
2650,565,753,38605
2660,571,815,38626
2670,580,804,38644
2680,596,709,38643
2690,610,730,38645
2700,632,710,38645
2710,649,730,38636
2720,659,762,38624
2730,664,753,38613
2740,667,820,38604
2750,667,810,38615
2760,659,813,38610
2770,653,826,38607
2780,654,819,38609
2790,641,820,38615
2800,639,801,38599
2810,641,815,38618
2820,642,824,38620
2830,646,808,38610
2840,647,825,38624
2850,651,850,38617
2860,659,831,38608
2870,652,809,38606
2880,657,836,38564
2890,656,832,38589
2900,650,797,38594
2910,648,819,38600
2920,645,840,38604
2930,644,823,38611
2940,642,818,38616
2950,643,804,38610
2960,646,825,38614
2970,641,775,38645
2980,643,680,38645
2990,641,701,38648
3000,636,723,38651
3010,637,727,38642
3020,628,742,38632
3030,623,750,38615
3040,619,809,38613
3050,617,812,38605
3060,616,826,38609
3070,607,807,38608
3080,604,841,38611
3090,593,830,38607
3100,589,819,38612
3110,584,796,38619
3120,571,795,38611
3130,569,773,38617
3140,558,803,38617
3150,551,811,38611
3160,550,817,38599
3170,542,821,38602
3180,537,820,38588
3190,532,843,38579
3200,524,813,38595
3210,526,823,38607
3220,519,838,38601
3230,516,853,38605
3240,517,773,38623
3250,512,776,38624
3260,511,838,38636
3270,505,735,38646
3280,505,700,38655
3290,500,713,38652
3300,498,708,38647
3310,497,751,38634
3320,493,731,38624
3330,493,750,38611
3340,492,794,38610
3350,489,820,38612
3360,489,823,38608
3370,487,835,38611
3380,488,814,38607
3390,484,829,38607
3400,484,806,38611
3410,488,775,38631
3420,483,826,38625
3430,486,825,38619
3440,486,814,38617
3450,485,786,38621
3460,488,819,38614
3470,487,826,38590
3480,486,837,38589
3490,488,803,38587
3500,485,833,38584
3510,487,818,38604
3520,484,818,38597
3530,483,827,38607
3540,488,815,38623
3550,485,787,38626
3560,485,815,38631
3570,486,733,38645
3580,486,674,38645
3590,489,726,38648
3600,487,744,38647
3610,492,746,38646
3620,495,759,38614
3630,493,723,38609
3640,498,818,38615
3650,497,832,38610
3660,501,846,38611
3670,501,826,38608
3680,499,780,38602
3690,504,830,38606
3700,503,796,38605
3710,505,813,38623
3720,504,843,38611
3730,506,798,38619
3740,508,820,38619
3750,505,782,38625
3760,505,819,38628
3770,505,846,38611
3780,500,822,38584
3790,503,788,38599
3800,496,819,38596
3810,501,795,38596
3820,497,798,38598
3830,493,861,38616
3840,495,828,38621
3850,488,785,38597
3860,488,799,38618
3870,487,711,38652
3880,483,729,38656
3890,485,723,38647
3900,484,683,38638
3910,485,761,38636
3920,485,737,38630
3930,481,811,38606
3940,486,829,38608
3950,484,877,38613
3960,485,815,38607
3970,488,792,38606
3980,487,828,38605
3990,488,856,38607
4000,488,834,38603
4010,490,773,38616
4020,494,801,38617
4030,494,839,38623
4040,493,798,38621
4050,496,816,38628
4060,497,829,38617
4070,501,810,38597
4080,499,775,38585
4090,501,800,38594
4100,500,828,38594
4110,499,837,38609
4120,501,811,38601
4130,494,823,38613
4140,491,802,38622
4150,490,774,38615
4160,487,821,38622
4170,489,730,38651
4180,487,719,38650
4190,492,698,38655
4200,493,710,38645
4210,493,734,38639
4220,495,768,38622
4230,490,808,38603
4240,494,814,38607
4250,492,791,38605
4260,491,838,38602
4270,494,783,38605
4280,486,815,38602
4290,486,840,38609
4300,486,803,38602
4310,483,783,38618
4320,483,822,38611
4330,484,828,38622
4340,482,817,38619
4350,484,791,38631
4360,481,831,38618
4370,485,833,38588
4380,483,810,38594
4390,482,834,38601
4400,482,847,38593
4410,480,821,38600
4420,484,810,38594
4430,482,853,38608
4440,482,798,38608
4450,485,816,38625
4460,479,830,38635
4470,483,712,38647
4480,481,718,38648
4490,480,686,38650
4500,484,727,38643
4510,483,701,38635
4520,482,762,38617
4530,482,803,38610
4540,483,821,38608
4550,485,786,38607
4560,482,822,38607
4570,487,869,38601
4580,485,814,38608
4590,485,813,38599
4600,489,827,38608
4610,488,798,38621
4620,492,783,38614
4630,493,826,38632
4640,492,815,38624
4650,497,841,38628
4660,498,802,38608
4670,499,814,38581
4680,499,818,38583
4690,494,865,38598
4700,496,799,38601
4710,494,816,38590
4720,492,846,38602
4730,488,839,38612
4740,484,822,38612
4750,486,779,38612
4760,481,772,38629
4770,482,698,38639
4780,480,688,38643
4790,476,719,38645
4800,479,730,38641
4810,476,709,38639
4820,477,741,38617
4830,478,812,38591
4840,473,804,38612
4850,475,822,38607
4860,472,807,38610
4870,470,821,38608
4880,466,815,38601
4890,461,806,38603
4900,460,815,38609
4910,451,823,38621
4920,450,764,38616
4930,444,803,38627
4940,434,798,38620
4950,434,838,38621
4960,428,756,38604
4970,419,798,38581
4980,414,799,38583
4990,402,762,38590
5000,394,841,38598
5010,383,811,38583
5020,370,839,38591
5030,360,843,38616
5040,344,788,38611
5050,336,778,38624
5060,330,765,38624
5070,322,719,38650
5080,323,749,38645
5090,320,715,38643
5100,326,626,38632
5110,327,730,38628
5120,333,752,38619
5130,340,803,38602
5140,344,835,38609
5150,352,815,38606
5160,360,844,38600
5170,368,817,38611
5180,373,794,38603
5190,377,799,38602
5200,384,863,38603
5210,387,801,38626
5220,394,788,38619
5230,399,856,38620
5240,407,789,38621
5250,414,819,38624
5260,421,738,38605
5270,435,836,38584
5280,445,845,38576
5290,456,825,38590
5300,468,811,38598
5310,476,736,38592
5320,486,823,38601
5330,500,701,38614
5340,505,818,38610
5350,517,777,38625
5360,530,681,38633
5370,535,709,38651
5380,548,689,38654
5390,557,725,38640
5400,574,714,38644
5410,585,721,38629
5420,594,769,38615
5430,611,824,38614
5440,619,817,38611
5450,627,773,38610
5460,638,834,38613
5470,641,800,38607
5480,649,832,38597
5490,653,830,38602
5500,663,745,38610
5510,667,789,38622
5520,674,687,38617
5530,676,816,38627
5540,680,836,38620
5550,684,813,38625
5560,690,793,38602
5570,691,834,38576
5580,693,786,38581
5590,689,818,38586
5600,686,817,38602
5610,681,809,38603
5620,674,808,38600
5630,677,816,38610
5640,672,779,38606
5650,667,794,38614
5660,668,751,38641
5670,660,673,38643
5680,658,704,38653
5690,656,715,38647
5700,648,701,38641
5710,647,739,38632
5720,642,836,38617
5730,637,806,38612
5740,636,797,38612
5750,633,804,38606
5760,633,818,38607
5770,625,845,38600
5780,625,811,38601
5790,619,811,38605
5800,613,811,38600
5810,616,788,38619
5820,610,749,38618
5830,609,824,38617
5840,603,785,38629
5850,598,805,38619
5860,599,808,38597
5870,591,803,38576
5880,586,824,38585
5890,581,851,38599
5900,580,828,38597
5910,576,795,38588
5920,573,816,38598
5930,571,794,38619
5940,572,813,38616
5950,566,794,38616
5960,568,742,38633
5970,565,697,38636
5980,564,690,38647
5990,564,710,38649
6000,557,719,38647
6010,562,709,38639
6020,562,774,38607
6030,561,804,38609
6040,568,817,38609
6050,568,784,38603
6060,572,801,38609
6070,570,834,38602
6080,571,808,38603
6090,572,800,38599
6100,565,818,38610
6110,568,819,38611
6120,565,788,38623
6130,564,804,38629
6140,565,837,38613
6150,561,848,38620
6160,556,808,38617
6170,558,793,38583
6180,550,834,38588
6190,553,816,38593
6200,548,815,38592
6210,541,808,38601
6220,543,803,38597
6230,537,837,38609
6240,536,792,38603
6250,535,775,38600
6260,529,720,38622
6270,531,696,38650
6280,526,714,38644
6290,524,715,38649
6300,518,713,38636
6310,513,729,38635
6320,513,776,38611
6330,509,824,38601
6340,508,836,38610
6350,507,839,38605
6360,501,829,38606
6370,495,837,38607
6380,496,833,38606
6390,495,779,38603
6400,492,826,38613
6410,489,807,38627
6420,490,753,38616
6430,483,810,38615
6440,481,813,38631
6450,481,777,38619
6460,477,811,38618
6470,479,812,38584
6480,474,819,38589
6490,473,808,38589
6500,473,815,38599
6510,469,863,38603
6520,472,795,38604
6530,469,804,38607
6540,465,785,38606
6550,467,787,38618
6560,463,726,38628
6570,468,705,38650
6580,468,732,38653
6590,466,718,38639
6600,466,722,38640
6610,463,761,38647
6620,465,792,38619
6630,464,846,38607
6640,462,818,38607
6650,467,791,38612
6660,458,810,38602
6670,463,829,38608
6680,462,798,38608
6690,462,800,38610
6700,463,837,38622
6710,462,783,38614
6720,466,762,38619
6730,466,806,38622
6740,461,808,38624
6750,465,836,38626
6760,466,790,38609
6770,465,828,38581
6780,467,850,38587
6790,467,817,38590
6800,469,792,38607
6810,464,798,38599
6820,469,804,38592
6830,469,798,38603
6840,463,833,38602
6850,470,813,38612
6860,466,744,38633
6870,467,697,38642
6880,467,721,38647
6890,468,717,38648
6900,465,706,38644
6910,461,697,38641
6920,463,773,38620
6930,462,804,38610
6940,457,806,38610
6950,458,803,38609
6960,454,805,38604
6970,451,823,38605
6980,451,841,38606
6990,443,832,38610
7000,446,817,38613
7010,442,816,38622
7020,439,742,38617
7030,437,804,38620
7040,431,837,38619
7050,434,812,38628
7060,434,797,38589
7070,432,807,38577
7080,438,813,38587
7090,437,837,38591
7100,442,804,38600
7110,445,818,38589
7120,448,815,38609
7130,454,795,38611
7140,453,837,38605
7150,459,800,38619
7160,459,735,38637
7170,459,685,38637
7180,462,719,38641
7190,461,706,38643
7200,463,744,38634
7210,463,736,38624
7220,462,813,38609
7230,465,836,38607
7240,468,817,38610
7250,472,770,38605
7260,472,826,38602
7270,473,873,38609
7280,476,796,38604
7290,472,781,38598
7300,477,826,38616
7310,479,804,38609
7320,477,751,38617
7330,479,845,38606
7340,476,801,38611
7350,481,815,38612
7360,483,790,38599
7370,477,827,38587
7380,475,840,38582
7390,474,819,38594
7400,466,809,38596
7410,461,798,38591
7420,451,777,38608
7430,452,799,38605
7440,447,805,38604
7450,448,767,38610
7460,453,713,38632
7470,453,678,38650
7480,463,726,38645
7490,465,728,38638
7500,472,741,38639
7510,478,732,38624
7520,482,752,38619
7530,485,836,38592
7540,488,822,38612
7550,492,824,38609
7560,490,805,38600
7570,488,843,38603
7580,492,828,38602
7590,489,800,38600
7600,494,803,38616
7610,501,802,38618
7620,505,775,38612
7630,516,786,38609
7640,526,834,38611
7650,530,819,38614
7660,537,831,38591
7670,533,803,38591
7680,542,820,38575
7690,541,811,38584
7700,536,807,38601
7710,537,827,38606
7720,532,829,38599
7730,528,816,38609
7740,516,785,38602
7750,508,772,38617
7760,500,692,38635
7770,488,717,38648
7780,482,702,38645
7790,475,687,38641
7800,461,701,38642
7810,451,733,38627
7820,440,784,38611
7830,435,829,38602
7840,438,826,38613
7850,442,816,38604
7860,457,793,38603
7870,469,800,38603
7880,489,814,38600
7890,516,828,38600
7900,554,808,38616
7910,589,763,38616
7920,606,757,38616
7930,620,781,38615
7940,637,812,38618
7950,649,832,38618
7960,679,816,38597
7970,708,804,38589
7980,723,842,38588
7990,732,828,38592
8000,730,820,38607
8010,729,843,38588
8020,726,811,38598
8030,719,819,38607
8040,722,800,38611
8050,716,787,38612
8060,714,773,38632
8070,706,705,38645
8080,702,679,38655
8090,700,723,38647
8100,686,704,38641
8110,686,721,38641
8120,676,776,38619
8130,665,786,38600
8140,663,801,38609
8150,652,807,38603
8160,645,785,38600
8170,635,838,38602
8180,629,813,38607
8190,624,800,38593
8200,610,816,38603
8210,609,794,38617
8220,604,782,38611
8230,593,825,38618
8240,590,835,38611
8250,582,803,38618
8260,580,796,38599
8270,576,827,38594
8280,563,824,38588
8290,561,813,38588
8300,555,783,38594
8310,546,811,38597
8320,545,813,38599
8330,537,811,38604
8340,536,801,38615
8350,532,810,38598
8360,526,755,38634
8370,528,682,38642
8380,520,699,38650
8390,519,711,38642
8400,508,703,38646
8410,507,732,38643
8420,508,746,38610
8430,498,774,38598
8440,500,814,38602
8450,495,812,38607
8460,490,796,38602
8470,493,798,38601
8480,489,798,38598
8490,491,813,38600
8500,489,806,38593
8510,483,794,38616
8520,488,815,38615
8530,483,799,38618
8540,479,816,38617
8550,482,819,38620
8560,479,798,38614
8570,480,805,38597
8580,475,840,38587
8590,474,813,38584
8600,472,779,38593
8610,465,851,38603
8620,466,833,38596
8630,451,829,38599
8640,436,798,38608
8650,428,823,38596
8660,417,750,38618
8670,413,707,38641
8680,407,677,38651
8690,402,713,38649
8700,399,690,38645
8710,396,719,38636
8720,394,753,38624
8730,385,826,38606
8740,381,788,38597
8750,375,822,38607
8760,360,816,38604
8770,348,801,38601
8780,334,825,38597
8790,327,795,38600
8800,329,803,38600
8810,331,809,38611
8820,338,796,38619
8830,344,724,38607
8840,350,812,38619
8850,361,817,38617
8860,367,818,38619
8870,376,815,38599
8880,387,798,38582
8890,394,827,38591
8900,405,784,38591
8910,419,852,38598
8920,436,818,38597
8930,454,823,38606
8940,471,800,38608
8950,498,794,38605
8960,510,779,38616
8970,522,724,38638
8980,531,713,38638
8990,538,699,38652
9000,540,711,38649
9010,535,699,38636
9020,525,751,38613
9030,502,827,38605
9040,485,817,38605
9050,481,801,38609
9060,469,857,38598
9070,462,793,38606
9080,454,785,38605
9090,440,845,38594
9100,433,789,38601
9110,421,789,38612
9120,406,819,38619
9130,384,748,38618
9140,351,813,38620
9150,332,796,38616
9160,320,801,38613
9170,311,841,38589
9180,315,812,38582
9190,318,803,38586
9200,325,830,38594
9210,331,812,38594
9220,340,803,38591
9230,353,807,38606
9240,358,811,38605
9250,369,788,38600
9260,380,769,38623
9270,391,699,38632
9280,403,697,38645
9290,409,703,38643
9300,422,724,38639
9310,432,735,38638
9320,441,746,38621
9330,451,828,38597
9340,457,811,38608
9350,465,802,38604
9360,472,816,38603
9370,482,833,38603
9380,494,806,38597
9390,496,814,38600
9400,507,812,38607
9410,516,798,38621
9420,522,773,38614
9430,533,796,38612
9440,539,793,38623
9450,552,813,38623
9460,561,794,38605
9470,566,826,38581
9480,576,828,38578
9490,584,808,38580
9500,592,812,38602
9510,602,825,38584
9520,612,849,38592
9530,619,796,38600
9540,623,808,38598
9550,633,783,38620
9560,644,734,38624
9570,643,716,38639
9580,653,734,38649
9590,656,698,38642
9600,660,707,38645
9610,662,751,38642
9620,664,774,38614
9630,664,830,38605
9640,666,815,38607
9650,669,832,38610
9660,669,832,38602
9670,670,805,38608
9680,679,821,38608
9690,678,856,38601
9700,681,811,38602
9710,685,795,38611
9720,681,803,38614
9730,684,827,38626
9740,684,815,38619
9750,683,799,38614
9760,686,822,38607
9770,665,846,38575
9780,640,849,38578
9790,625,812,38592
9800,601,831,38594
9810,594,826,38582
9820,584,816,38592
9830,574,828,38595
9840,567,808,38604
9850,562,803,38605
9860,556,759,38621
9870,545,717,38632
9880,539,743,38643
9890,535,668,38641
9900,523,718,38641
9910,519,707,38635
9920,511,772,38609
9930,503,783,38592
9940,492,816,38605
9950,483,835,38612
9960,474,820,38604
9970,468,793,38600
9980,463,827,38601
9990,456,839,38597
10000,448,825,38596
10010,450,806,38607
10020,443,811,38609
10030,448,786,38620
10040,447,792,38619
10050,447,833,38611
10060,455,844,38612
10070,456,808,38585
10080,463,799,38575
10090,472,814,38591
10100,472,821,38591
10110,480,809,38601
10120,484,843,38592
10130,487,846,38597
10140,493,818,38608
10150,498,791,38606
10160,504,783,38623
10170,505,731,38644
10180,512,721,38641
10190,516,681,38644
10200,520,734,38640
10210,525,740,38642
10220,528,778,38621
10230,530,785,38609
10240,531,839,38601
10250,534,854,38608
10260,538,845,38606
10270,541,837,38605
10280,544,867,38593
10290,547,856,38594
10300,547,829,38587
10310,551,811,38613
10320,549,830,38611
10330,551,744,38605
10340,556,817,38613
10350,556,819,38615
10360,558,845,38620
10370,560,819,38599
10380,555,861,38576
10390,560,800,38588
10400,555,826,38593
10410,557,846,38597
10420,556,813,38600
10430,554,831,38597
10440,558,813,38612
10450,555,787,38598
10460,561,779,38616
10470,558,702,38627
10480,560,712,38641
10490,558,733,38643
10500,556,761,38645
10510,555,690,38634
10520,552,773,38622
10530,548,774,38604
10540,550,831,38604
10550,545,803,38606
10560,546,806,38607
10570,543,794,38604
10580,540,857,38595
10590,543,825,38600
10600,542,829,38595
10610,545,809,38605
10620,544,808,38613
10630,550,802,38614
10640,560,823,38616
10650,568,820,38619
10660,576,807,38616
10670,584,833,38598
10680,591,760,38581
10690,600,859,38587
10700,599,795,38590
10710,597,820,38597
10720,591,830,38588
10730,579,841,38598
10740,570,849,38603
10750,561,819,38596
10760,548,697,38610
10770,547,722,38633
10780,538,715,38641
10790,535,712,38640
10800,526,750,38650
10810,524,731,38638
10820,521,782,38620
10830,521,798,38606
10840,522,832,38601
10850,515,835,38602
10860,509,875,38599
10870,505,852,38600
10880,495,766,38593
10890,494,824,38599
10900,494,834,38587
10910,490,828,38610
10920,491,871,38609
10930,491,792,38602
10940,490,819,38614
10950,489,793,38613
10960,487,868,38612
10970,491,838,38598
10980,486,849,38573
10990,486,809,38580
11000,486,833,38585
11010,484,810,38594
11020,488,848,38589
11030,486,836,38599
11040,485,880,38600
11050,486,813,38591
11060,481,712,38612
11070,488,756,38627
11080,484,690,38644
11090,484,717,38638
11100,487,735,38636
11110,485,745,38635
11120,487,760,38627
11130,482,776,38596
11140,483,831,38598
11150,483,815,38605
11160,483,857,38588
11170,486,848,38594
11180,487,838,38595
11190,493,843,38598
11200,496,854,38591
11210,500,840,38601
11220,504,825,38605
11230,510,784,38609
11240,511,848,38617
11250,514,838,38610
11260,512,807,38617
11270,518,832,38590
11280,514,846,38580
11290,515,829,38576
11300,515,818,38584
11310,509,846,38592
11320,512,816,38599
11330,508,843,38594
11340,505,833,38594
11350,506,795,38607
11360,504,775,38606
11370,504,754,38621
11380,500,712,38636
11390,498,706,38630
11400,497,711,38643
11410,488,714,38631
11420,483,748,38615
11430,469,773,38601
11440,461,789,38593
11450,458,834,38598
11460,451,828,38599
11470,452,807,38601
11480,449,809,38591
11490,450,819,38596
11500,452,810,38596
11510,448,841,38610
11520,449,795,38614
11530,449,769,38609
11540,449,838,38606
11550,453,795,38614
11560,451,832,38621
11570,455,854,38591
11580,458,826,38581
11590,460,828,38589
11600,476,881,38585
11610,480,806,38594
11620,487,813,38597
11630,492,843,38592
11640,492,818,38601
11650,496,802,38610
11660,495,806,38615
11670,497,757,38631
11680,497,722,38647
11690,497,741,38644
11700,498,735,38641
11710,498,724,38628
11720,500,749,38628
11730,499,758,38610
11740,496,818,38597
11750,498,824,38603
11760,496,812,38594
11770,496,832,38601
11780,496,778,38608
11790,494,823,38605
11800,495,826,38595
11810,493,806,38608
11820,493,813,38615
11830,497,817,38611
11840,491,842,38617
11850,494,808,38618
11860,491,806,38620
11870,484,809,38606
11880,490,830,38580
11890,483,805,38572
11900,486,856,38582
11910,483,856,38592
11920,483,843,38583
11930,487,863,38604
11940,483,820,38593
11950,483,813,38606
11960,486,774,38615
11970,485,796,38632
11980,488,700,38638
11990,486,729,38636
12000,489,759,38650
12010,493,716,38642
12020,490,765,38625
12030,496,800,38601
12040,494,803,38593
12050,498,843,38609
12060,499,862,38608
12070,495,829,38600
12080,497,837,38599
12090,491,828,38605
12100,492,806,38597
12110,490,817,38614
12120,487,794,38614
12130,491,790,38611
12140,492,817,38607
12150,492,813,38607
12160,491,811,38619
12170,488,876,38593
12180,496,807,38578
12190,503,823,38587
12200,504,840,38590
12210,507,839,38591
12220,504,818,38594
12230,508,869,38598
12240,507,811,38605
12250,505,813,38603
12260,505,770,38607
12270,504,758,38640
12280,503,721,38642
12290,504,747,38641
12300,502,674,38639
12310,504,752,38634
12320,501,784,38629
12330,501,785,38597
12340,502,811,38603
12350,500,817,38604
12360,501,818,38600
12370,499,811,38605
12380,505,837,38602
12390,504,804,38604
12400,503,805,38604
12410,504,831,38611
12420,501,837,38613
12430,500,795,38610
12440,503,847,38611
12450,502,819,38613
12460,505,857,38614
12470,503,821,38592
12480,503,834,38561
12490,507,840,38579
12500,505,815,38584
12510,507,809,38600
12520,507,839,38583
12530,508,830,38595
12540,510,850,38600
12550,508,799,38602
12560,508,783,38602
12570,508,751,38633
12580,510,727,38644
12590,510,703,38643
12600,508,737,38641
12610,509,737,38638
12620,507,744,38630
12630,502,724,38606
12640,505,832,38597
12650,502,809,38610
12660,507,822,38605
12670,511,825,38605
12680,514,820,38605
12690,518,832,38598
12700,516,814,38597
12710,521,817,38600
12720,519,816,38611
12730,521,752,38605
12740,525,803,38614
12750,522,827,38611
12760,521,789,38619
12770,521,824,38597
12780,520,815,38575
12790,526,820,38587
12800,521,835,38581
12810,518,821,38596
12820,521,823,38578
12830,520,822,38593
12840,520,808,38614
12850,514,771,38609
12860,515,800,38604
12870,510,775,38629
12880,507,724,38640
12890,509,742,38647
12900,504,730,38641
12910,504,693,38632
12920,502,794,38637
12930,498,746,38613
12940,501,809,38597
12950,493,828,38610
12960,499,836,38602
12970,494,830,38609
12980,489,791,38600
12990,493,833,38595
13000,486,816,38593
13010,491,818,38605
13020,492,810,38610
13030,496,770,38608
13040,503,711,38608
13050,497,831,38611
13060,500,841,38613
13070,502,794,38624
13080,495,814,38593
13090,503,823,38579
13100,497,816,38593
13110,496,798,38595
13120,497,838,38603
13130,493,822,38599
13140,502,794,38608
13150,502,791,38613
13160,501,826,38596
13170,508,755,38623
13180,500,722,38632
13190,505,691,38646
13200,487,723,38644
13210,479,727,38633
13220,482,684,38634
13230,477,755,38627
13240,474,834,38600
13250,471,805,38607
13260,466,816,38600
13270,468,840,38606
13280,463,838,38605
13290,469,823,38606
13300,464,826,38596
13310,465,829,38602
13320,470,823,38617
13330,467,771,38614
13340,474,719,38608
13350,478,821,38613
13360,477,810,38614
13370,482,821,38612
13380,479,821,38592
13390,485,794,38577
13400,488,829,38585
13410,489,839,38590
13420,493,845,38597
13430,491,816,38593
13440,493,820,38601
13450,495,831,38620
13460,494,816,38599
13470,498,759,38616
13480,498,678,38632
13490,498,728,38637
13500,502,705,38646
13510,498,687,38633
13520,502,719,38637
13530,501,783,38634
13540,503,802,38610
13550,503,789,38599
13560,501,842,38606
13570,507,811,38599
13580,506,812,38603
13590,504,816,38609
13600,508,832,38598
13610,505,834,38599
13620,512,807,38614
13630,508,759,38619
13640,508,764,38610
13650,511,811,38611
13660,509,812,38621
13670,509,839,38618
13680,512,816,38603
13690,511,823,38579
13700,514,830,38585
13710,511,844,38596
13720,515,828,38596
13730,516,820,38593
13740,516,804,38590
13750,520,848,38611
13760,516,836,38604
13770,519,746,38608
13780,519,713,38630
13790,518,731,38648
13800,522,702,38646
13810,517,700,38643
13820,518,741,38634
13830,518,755,38625
13840,515,790,38607
13850,519,823,38601
13860,516,837,38604
13870,515,802,38596
13880,512,816,38601
13890,511,827,38604
13900,512,841,38604
13910,508,802,38613
13920,510,809,38610
13930,510,828,38613
13940,506,798,38622
13950,509,805,38613
13960,505,815,38623
13970,507,832,38613
13980,508,812,38599
13990,506,807,38589
14000,508,808,38570
14010,507,827,38589
14020,504,812,38598
14030,504,823,38595
14040,500,823,38596
14050,500,844,38606
14060,500,828,38610
14070,498,760,38620
14080,501,746,38615
14090,499,697,38641
14100,501,715,38643
14110,503,683,38643
14120,502,710,38642
14130,505,761,38641
14140,499,755,38614
14150,500,835,38602
14160,499,808,38604
14170,499,833,38614
14180,499,818,38604
14190,498,825,38606
14200,501,799,38600
14210,502,824,38598
14220,501,782,38609
14230,503,818,38615
14240,502,796,38619
14250,505,805,38621
14260,507,826,38622
14270,503,835,38613
14280,509,812,38612
14290,509,829,38591
14300,510,838,38575
14310,512,808,38581
14320,510,830,38594
14330,514,835,38588
14340,513,817,38594
14350,514,807,38602
14360,518,813,38600
14370,514,787,38601
14380,524,786,38627
14390,522,735,38630
14400,525,692,38635
14410,527,690,38650
14420,523,706,38645
14430,530,733,38629
14440,525,760,38625
14450,524,786,38602
14460,530,812,38598
14470,521,844,38606
14480,530,811,38599
14490,523,832,38604
14500,522,864,38605
14510,528,812,38597
14520,519,840,38597
14530,526,807,38613
14540,518,794,38611
14550,522,763,38611
14560,526,831,38622
14570,518,877,38614
14580,525,768,38612
14590,522,733,38597
14600,518,831,38567
14610,527,793,38583
14620,517,828,38585
14630,524,905,38593
14640,520,777,38585
14650,515,830,38597
14660,525,806,38606
14670,515,829,38606
14680,519,770,38621
14690,518,684,38629
14700,509,718,38636
14710,521,708,38642
14720,509,683,38649
14730,515,760,38643
14740,513,700,38623
14750,505,757,38597
14760,514,865,38604
14770,501,872,38609
14780,507,772,38608
14790,501,808,38597
14800,495,813,38597
14810,505,799,38590
14820,496,800,38598
14830,507,833,38609
14840,506,760,38618
14850,507,753,38614
14860,517,791,38606
14870,514,796,38603
14880,515,825,38621
14890,522,850,38589
14900,514,821,38568
14910,528,801,38584
14920,518,843,38583
14930,518,832,38591
14940,521,806,38595
14950,510,809,38591
14960,517,847,38604
14970,510,763,38598
14980,511,751,38626
14990,518,716,38642
15000,508,701,38636
15010,518,712,38635
15020,509,712,38629
15030,508,730,38634
15040,518,742,38616
15050,503,814,38597
15060,515,784,38597
15070,508,822,38601
15080,509,825,38597
15090,518,817,38597
15100,504,822,38598
15110,509,813,38597
15120,493,819,38591
15130,489,828,38605
15140,486,780,38611
15150,466,714,38597
15160,478,822,38610
15170,497,802,38608
15180,498,837,38613
15190,512,800,38589
15200,494,849,38565
15210,494,819,38577
15220,492,823,38583
15230,488,811,38585
15240,501,805,38592
15250,494,834,38588
15260,499,774,38616
15270,492,784,38614
15280,478,762,38615
15290,493,710,38642
15300,484,683,38634
15310,491,718,38634
15320,493,693,38635
15330,490,699,38630
15340,507,738,38614
15350,502,818,38610
15360,511,807,38599
15370,511,818,38598
15380,505,852,38589
15390,514,797,38597
15400,508,801,38598
15410,508,834,38592
15420,509,835,38589
15430,507,786,38617
15440,523,792,38608
15450,525,708,38600
15460,521,790,38609
15470,521,834,38608
15480,512,800,38612
15490,514,805,38591
15500,513,787,38568
15510,514,797,38587
15520,531,822,38583
15530,522,814,38600
15540,522,815,38591
15550,517,836,38595
15560,513,820,38616
15570,511,771,38603
15580,499,788,38623
15590,501,707,38633
15600,496,727,38631
15610,494,687,38646
15620,502,722,38637
15630,498,749,38636
15640,503,763,38610
15650,503,808,38598
15660,503,837,38604
15670,507,847,38597
15680,501,815,38603
15690,503,814,38590
15700,506,821,38597
15710,503,842,38586
15720,508,784,38599
15730,504,807,38612
15740,508,790,38614
15750,508,825,38611
15760,503,805,38614
15770,507,833,38619
15780,506,804,38610
15790,509,798,38582
15800,510,795,38582
15810,506,822,38584
15820,512,832,38596
15830,509,806,38588
15840,510,819,38587
15850,513,826,38602
15860,510,791,38609
15870,512,781,38607
15880,509,784,38633
15890,510,688,38635
15900,515,676,38635
15910,511,703,38637
15920,513,672,38631
15930,515,744,38632
15940,514,766,38614
15950,516,816,38604
15960,512,797,38598
15970,515,839,38604
15980,513,821,38600
15990,512,817,38600
16000,516,813,38590
16010,512,824,38589
16020,516,839,38592
16030,515,789,38611
16040,515,754,38608
16050,520,740,38607
16060,516,804,38616
16070,516,804,38605
16080,515,815,38619
16090,510,819,38588
16100,514,822,38575
16110,511,799,38587
16120,514,805,38591
16130,516,807,38599
16140,513,815,38582
16150,516,810,38591
16160,514,839,38607
16170,515,889,38591
16180,519,752,38616
16190,513,660,38632
16200,518,689,38632
16210,515,722,38636
16220,518,747,38630
16230,518,747,38627
16240,514,746,38616
16250,519,803,38599
16260,513,791,38602
16270,514,823,38598
16280,516,844,38603
16290,511,848,38604
16300,517,813,38598
16310,514,810,38598
16320,517,813,38586
16330,520,826,38608
16340,514,789,38617
16350,521,725,38607
16360,518,799,38610
16370,516,856,38615
16380,523,795,38613
16390,519,739,38588
16400,522,759,38569
16410,520,795,38578
16420,517,812,38591
16430,520,839,38590
16440,516,798,38593
16450,517,819,38587
16460,515,836,38607
16470,513,812,38600
16480,513,728,38595
16490,509,716,38618
16500,509,667,38632
16510,508,680,38643
16520,498,724,38644
16530,498,690,38629
16540,491,705,38627
16550,486,789,38600
16560,481,791,38594
16570,475,848,38594
16580,475,678,38609
16590,470,786,38595
16600,469,726,38593
16610,469,817,38596
16620,469,808,38597
16630,473,787,38612
16640,472,642,38608
16650,477,721,38612
16660,477,596,38606
16670,479,818,38617
16680,486,808,38619
16690,488,847,38607
16700,488,799,38584
16710,494,822,38579
16720,493,802,38580
16730,496,814,38582
16740,496,814,38583
16750,497,783,38592
16760,501,796,38596
16770,500,806,38597
16780,508,778,38604
16790,509,714,38619
16800,511,678,38628
16810,516,671,38634
16820,516,685,38646
16830,518,731,38636
16840,520,702,38628
16850,519,752,38615
16860,523,840,38595
16870,520,802,38595
16880,522,824,38604
16890,524,790,38600
16900,525,819,38595
16910,532,805,38596
16920,531,840,38596
16930,535,774,38600
16940,532,782,38609
16950,533,773,38609
16960,539,740,38611
16970,535,794,38618
16980,535,827,38618
16990,537,829,38609
17000,539,821,38584
17010,541,816,38565
17020,540,803,38577
17030,540,839,38587
17040,542,779,38591
17050,538,801,38589
17060,540,852,38598
17070,535,807,38606
17080,532,758,38601
17090,535,773,38607
17100,531,730,38628
17110,536,689,38637
17120,532,729,38645
17130,532,722,38639
17140,532,736,38635
17150,523,771,38617
17160,524,785,38611
17170,518,805,38599
17180,511,835,38606
17190,508,774,38601
17200,498,815,38604
17210,485,821,38605
17220,468,805,38596
17230,455,792,38602
17240,444,792,38606
17250,429,808,38616
17260,432,740,38606
17270,427,794,38603
17280,424,798,38616
17290,429,862,38617
17300,429,787,38590
17310,435,809,38566
17320,439,791,38571
17330,441,811,38586
17340,449,793,38593
17350,451,807,38589
17360,457,797,38601
17370,463,799,38603
17380,466,784,38602
17390,471,738,38605
17400,476,691,38636
17410,482,690,38638
17420,487,699,38643
17430,489,698,38641
17440,498,728,38644
17450,497,732,38630
17460,506,784,38605
17470,513,815,38596
17480,518,828,38601
17490,520,830,38604
17500,522,781,38608
17510,528,796,38606
17520,534,817,38604
17530,537,802,38600
17540,541,771,38612
17550,544,796,38613
17560,551,714,38605
17570,557,792,38612
17580,560,806,38612
17590,562,825,38610
17600,559,811,38593
17610,559,781,38563
17620,564,783,38583
17630,556,789,38575
17640,560,822,38589
17650,559,784,38584
17660,560,837,38600
17670,564,778,38611
17680,559,774,38608
17690,561,776,38600
17700,561,721,38624
17710,560,692,38641
17720,562,678,38645
17730,557,698,38646
17740,558,687,38627
17750,555,754,38630
17760,554,779,38617
17770,556,808,38599
17780,549,783,38608
17790,552,809,38598
17800,547,782,38595
17810,545,833,38599
17820,543,810,38601
17830,539,789,38604
17840,541,790,38609
17850,540,768,38621
17860,536,763,38611
17870,536,798,38612
17880,535,831,38612
17890,532,788,38616
17900,530,786,38601
17910,530,790,38581
17920,532,817,38569
17930,528,809,38580
17940,529,801,38594
17950,528,819,38588
17960,522,797,38595
17970,525,795,38598
17980,523,791,38602
17990,522,786,38611
18000,523,694,38614
18010,518,693,38650
18020,519,657,38644
18030,515,712,38644
18040,513,689,38637
18050,515,725,38639
18060,510,761,38615
18070,510,789,38596
18080,509,796,38599
18090,507,803,38603
18100,507,812,38598
18110,501,808,38604
18120,504,817,38601
18130,500,789,38600
18140,496,837,38596
18150,498,767,38614
18160,494,758,38610
18170,493,794,38612
18180,492,811,38614
18190,490,785,38610
18200,488,807,38606
18210,484,807,38582
18220,479,778,38587
18230,479,803,38589
18240,476,801,38594
18250,482,809,38596
18260,478,822,38590
18270,480,809,38607
18280,481,824,38611
18290,481,741,38606
18300,482,699,38626
18310,484,701,38646
18320,489,695,38646
18330,486,677,38644
18340,483,701,38633
18350,487,722,38636
18360,484,786,38604
18370,485,820,38598
18380,491,797,38609
18390,486,811,38601
18400,490,801,38601
18410,489,801,38605
18420,489,791,38594
18430,491,818,38608
18440,490,798,38608
18450,492,812,38616
18460,490,731,38614
18470,493,803,38609
18480,497,811,38618
18490,496,769,38616
18500,498,809,38611
18510,498,792,38583
18520,495,822,38580
18530,499,798,38586
18540,498,811,38589
18550,501,822,38592
18560,504,834,38592
18570,504,788,38608
18580,506,815,38600
18590,502,813,38602
18600,506,712,38630
18610,509,707,38639
18620,508,707,38645
18630,510,720,38638
18640,508,706,38635
18650,512,727,38636
18660,515,785,38600
18670,514,825,38604
18680,519,812,38599
18690,516,812,38608
18700,519,791,38603
18710,523,825,38602
18720,520,791,38604
18730,525,810,38595
18740,522,811,38604
18750,524,794,38613
18760,524,746,38616
18770,521,814,38616
18780,522,795,38621
18790,519,799,38616
18800,517,808,38605
18810,519,798,38572
18820,517,834,38585
18830,519,788,38579
18840,517,819,38596
18850,518,799,38595
18860,521,817,38586
18870,520,775,38606
18880,519,812,38610
18890,516,766,38595
18900,514,734,38622
18910,516,703,38646
18920,512,688,38643
18930,518,682,38640
18940,514,720,38638
18950,512,728,38627
18960,513,788,38602
18970,510,813,38592
18980,511,787,38602
18990,507,796,38601
19000,504,808,38601
19010,507,829,38604
19020,504,803,38604
19030,504,795,38605
19040,503,806,38605
19050,499,796,38620
19060,501,739,38611
19070,493,803,38614
19080,494,810,38619
19090,492,795,38613
19100,489,800,38600
19110,493,800,38581
19120,491,812,38580
19130,485,808,38591
19140,488,804,38596
19150,487,801,38588
19160,492,829,38592
19170,488,776,38595
19180,484,801,38608
19190,486,787,38606
19200,486,706,38619
19210,488,674,38635
19220,489,688,38638
19230,490,682,38639
19240,493,707,38635
19250,495,721,38637
19260,494,779,38605
19270,492,817,38600
19280,496,814,38602
19290,496,804,38595
19300,492,814,38611
19310,496,815,38596
19320,493,798,38595
19330,492,775,38605
19340,494,799,38616
19350,491,756,38608
19360,497,752,38609
19370,496,784,38614
19380,494,787,38614
19390,500,807,38619
19400,497,794,38594
19410,502,835,38570
19420,502,806,38585
19430,501,814,38587
19440,503,796,38587
19450,501,824,38591
19460,504,796,38599
19470,504,811,38607
19480,504,779,38609
19490,508,738,38608
19500,508,722,38621
19510,510,680,38648
19520,510,677,38639
19530,511,698,38641
19540,516,704,38637
19550,515,681,38637
19560,517,822,38594
19570,518,771,38595
19580,517,809,38601
19590,521,785,38598
19600,520,806,38604
19610,522,790,38609
19620,526,818,38602
19630,523,811,38602
19640,526,802,38617
19650,521,742,38615
19660,523,726,38610
19670,524,823,38612
19680,519,790,38620
19690,522,817,38613
19700,517,826,38586
19710,516,805,38569
19720,516,773,38580
19730,512,827,38589
19740,514,762,38597
19750,512,813,38594
19760,510,776,38602
19770,508,800,38606
19780,506,764,38604
19790,507,757,38628
19800,509,696,38626
19810,506,705,38635
19820,507,696,38637
19830,503,681,38636
19840,507,733,38637
19850,506,735,38624
19860,502,810,38603
19870,503,807,38599
19880,498,808,38598
19890,500,782,38600
19900,501,818,38597
19910,498,790,38593
19920,500,788,38598
19930,497,797,38599
19940,496,783,38609
19950,493,743,38617
19960,493,707,38609
19970,493,813,38621
19980,488,812,38616
19990,486,820,38606
20000,486,791,38592
20010,482,830,38578
20020,484,800,38591
20030,482,809,38586
20040,480,821,38592
20050,480,797,38590
20060,478,801,38602
20070,480,799,38611
20080,475,795,38604
20090,474,723,38612
20100,478,702,38635
20110,476,700,38640
20120,481,699,38641
20130,478,701,38629
20140,477,704,38636
20150,480,765,38620
20160,476,796,38598
20170,478,803,38594
20180,481,816,38599
20190,481,762,38601
20200,483,803,38598
20210,481,805,38604
20220,487,825,38600
20230,489,812,38598
20240,491,805,38608
20250,494,764,38613
20260,496,748,38607
20270,502,782,38611
20280,505,788,38610
20290,503,814,38617
20300,506,787,38592
20310,508,805,38581
20320,510,808,38580
20330,511,795,38591
20340,512,791,38604
20350,519,818,38584
20360,518,800,38598
20370,519,815,38610
20380,521,773,38593
20390,521,705,38619
20400,527,677,38638
20410,523,693,38635
20420,526,684,38645
20430,529,721,38634
20440,524,712,38635
20450,528,770,38613
20460,525,817,38590
20470,528,781,38602
20480,525,804,38597
20490,523,818,38601
20500,529,789,38598
20510,527,786,38601
20520,527,845,38594
20530,527,776,38600
20540,526,789,38617
20550,528,768,38610
20560,526,803,38614
20570,526,779,38614
20580,527,816,38623
20590,528,800,38603
20600,530,792,38579
20610,530,832,38579
20620,527,801,38589
20630,530,794,38596
20640,525,817,38594
20650,528,800,38597
20660,527,813,38609
20670,523,800,38608
20680,523,745,38603
20690,522,703,38626
20700,524,701,38646
20710,523,690,38640
20720,520,697,38647
20730,520,707,38645
20740,518,707,38636
20750,518,783,38616
20760,515,794,38599
20770,514,825,38606
20780,516,799,38617
20790,516,800,38608
20800,516,786,38596
20810,514,824,38604
20820,513,805,38596
20830,513,780,38620
20840,512,781,38606
20850,514,764,38608
20860,514,825,38616
20870,512,782,38616
20880,513,802,38617
20890,511,807,38602
20900,510,786,38576
20910,513,766,38579
20920,509,823,38584
20930,510,802,38591
20940,507,779,38589
20950,509,797,38593
20960,512,794,38611
20970,510,787,38609
20980,511,758,38604
20990,509,712,38627
21000,509,693,38633
21010,512,690,38640
21020,510,684,38641
21030,512,715,38641
21040,511,719,38635
21050,509,771,38616
21060,508,807,38603
21070,508,809,38600
21080,511,792,38604
21090,510,799,38603
21100,506,802,38602
21110,510,820,38602
21120,508,802,38600
21130,511,771,38613
21140,508,760,38614
21150,507,768,38618
21160,508,787,38614
21170,503,812,38614
21180,503,814,38615
21190,504,796,38592
21200,502,772,38578
21210,504,817,38582
21220,500,813,38587
21230,502,818,38592
21240,504,796,38592
21250,501,799,38591
21260,503,819,38606
21270,502,763,38601
21280,501,743,38611
21290,501,717,38622
21300,502,699,38636
21310,506,663,38640
21320,504,711,38643
21330,503,715,38635
21340,507,746,38629
21350,504,752,38607
21360,508,791,38598
21370,506,800,38599
21380,507,821,38602
21390,507,804,38594
21400,507,798,38601
21410,506,802,38598
21420,507,791,38601
21430,506,808,38604
21440,508,790,38610
21450,504,764,38606
21460,507,704,38601
21470,505,802,38615
21480,504,794,38622
21490,507,818,38593
21500,501,799,38581
21510,502,816,38585
21520,503,804,38583
21530,499,751,38587
21540,502,803,38593
21550,501,790,38600
21560,504,807,38605
21570,504,778,38598
21580,508,764,38607
21590,509,697,38635
21600,507,716,38641
21610,509,682,38643
21620,509,703,38642
21630,506,695,38644
21640,507,712,38628
21650,504,768,38609
21660,504,809,38592
21670,503,807,38600
21680,503,805,38604
21690,506,804,38602
21700,503,783,38597
21710,502,790,38611
21720,502,828,38602
21730,504,801,38609
21740,504,785,38613
21750,503,754,38614
21760,504,670,38618
21770,505,854,38614
21780,499,801,38625
21790,504,851,38595
21800,502,809,38573
21810,505,806,38579
21820,507,795,38585
21830,505,833,38587
21840,507,809,38591
21850,506,810,38590
21860,504,774,38605
21870,507,792,38601
21880,507,813,38607
21890,507,728,38621
21900,509,686,38634
21910,512,605,38641
21920,510,682,38639
21930,508,585,38633
21940,510,743,38631
21950,510,805,38604
21960,507,846,38591
21970,512,854,38605
21980,507,808,38602
21990,508,773,38604
22000,508,847,38607
22010,509,810,38593
22020,509,810,38600
22030,506,796,38605
22040,508,778,38607
22050,507,660,38609
22060,508,711,38609
22070,507,817,38606
22080,504,794,38620
22090,504,805,38603
22100,504,779,38577
22110,503,809,38565
22120,505,791,38587
22130,506,797,38588
22140,507,803,38588
22150,507,808,38593
22160,506,796,38606
22170,508,796,38605
22180,505,788,38599
22190,505,768,38628
22200,507,682,38639
22210,506,698,38644
22220,509,681,38648
22230,507,694,38630
22240,509,680,38640
22250,509,787,38619
22260,505,831,38591
22270,505,789,38605
22280,504,829,38602
22290,503,788,38604
22300,504,798,38600
22310,503,789,38604
22320,507,806,38587
22330,503,753,38611
22340,505,774,38617
22350,505,785,38606
22360,501,799,38621
22370,502,803,38605
22380,504,803,38620
22390,503,801,38599
22400,505,821,38588
22410,501,781,38560
22420,503,798,38587
22430,504,813,38597
22440,504,804,38600
22450,506,784,38593
22460,506,815,38597
22470,505,773,38612
22480,507,772,38604
22490,505,738,38622
22500,510,715,38641
22510,509,692,38636
22520,511,702,38641
22530,510,707,38639
22540,510,726,38628
22550,512,742,38625
22560,507,820,38605
22570,510,818,38597
22580,510,788,38602
22590,507,796,38594
22600,508,804,38603
22610,505,819,38601
22620,505,759,38607
22630,504,835,38609
22640,503,783,38615
22650,507,816,38613
22660,506,791,38623
22670,503,829,38613
22680,506,771,38611
22690,504,830,38614
22700,506,799,38594
22710,506,818,38592
22720,508,807,38578
22730,511,784,38595
22740,507,859,38601
22750,506,789,38595
22760,510,807,38597
22770,507,787,38615
22780,512,794,38609
22790,506,730,38630
22800,513,703,38637
22810,512,702,38638
22820,509,754,38650
22830,511,745,38633
22840,507,698,38636
22850,506,726,38617
22860,506,831,38607
22870,505,843,38606
22880,509,815,38607
22890,506,805,38598
22900,507,839,38599
22910,507,832,38605
22920,505,795,38596
22930,509,811,38596
22940,504,845,38611
22950,507,789,38616
22960,507,720,38605
22970,508,842,38610
22980,507,851,38610
22990,508,811,38609
23000,506,797,38597
23010,507,805,38572
23020,507,839,38583
23030,505,811,38583
23040,505,815,38600
23050,502,854,38585
23060,505,818,38594
23070,499,783,38610
23080,505,814,38604
23090,502,749,38608
23100,505,716,38629
23110,505,709,38639
23120,504,681,38634
23130,505,667,38636
23140,506,739,38630
23150,504,722,38627
23160,503,798,38610
23170,500,809,38598
23180,504,810,38601
23190,505,795,38600
23200,504,818,38596
23210,506,836,38602
23220,503,852,38594
23230,503,811,38601
23240,504,790,38596
23250,506,786,38614
23260,506,775,38606
23270,502,803,38616
23280,507,779,38616
23290,508,814,38607
23300,504,818,38608
23310,507,814,38583
23320,504,782,38589
23330,504,832,38583
23340,504,836,38601
23350,503,792,38594
23360,506,753,38589
23370,504,821,38604
23380,507,829,38610
23390,508,783,38601
23400,507,680,38622
23410,508,682,38640
23420,507,679,38642
23430,510,706,38642
23440,510,687,38640
23450,507,732,38642
23460,511,787,38601
23470,506,793,38597
23480,510,799,38600
23490,510,788,38599
23500,509,809,38600
23510,512,790,38602
23520,508,776,38596
23530,509,769,38597
23540,510,811,38603
23550,507,821,38624
23560,510,748,38615
23570,509,813,38612
23580,508,797,38615
23590,512,815,38616
23600,507,801,38602
23610,508,808,38579
23620,503,816,38582
23630,503,798,38592
23640,505,777,38588
23650,501,823,38604
23660,504,799,38590
23670,504,797,38602
23680,502,776,38596
23690,502,777,38596
23700,501,671,38621
23710,504,710,38647
23720,504,685,38634
23730,505,702,38642
23740,506,705,38629
23750,501,711,38629
23760,502,799,38608
23770,502,788,38594
23780,500,817,38597
23790,501,802,38599
23800,501,796,38600
23810,500,779,38598
23820,501,825,38595
23830,500,787,38606
23840,503,799,38606
23850,502,762,38615
23860,503,746,38613
23870,504,808,38613
23880,503,787,38610
23890,504,805,38612
23900,502,815,38600
23910,502,802,38587
23920,504,768,38577
23930,501,819,38583
23940,504,803,38584
23950,503,810,38582
23960,504,781,38598
23970,505,796,38602
23980,503,780,38604
23990,504,778,38613
24000,503,713,38608
24010,505,704,38639
24020,507,701,38643
24030,505,686,38645
24040,508,724,38638
24050,507,688,38633
24060,509,762,38616
24070,509,797,38598
24080,507,789,38603
24090,510,780,38601
24100,510,819,38598
24110,508,793,38601
24120,510,792,38598
24130,505,824,38601
24140,510,826,38609
24150,506,798,38618
24160,508,785,38618
24170,509,705,38608
24180,507,848,38623
24190,506,801,38614
24200,507,800,38620
24210,507,846,38588
24220,507,852,38583
24230,505,808,38583
24240,505,804,38589
24250,507,858,38585
24260,506,819,38590
24270,508,807,38597
24280,505,798,38605
24290,509,844,38610
24300,510,749,38619
24310,509,701,38637
24320,511,700,38644
24330,511,772,38651
24340,509,692,38642
24350,512,710,38640
24360,510,772,38631
24370,513,819,38607
24380,510,792,38597
24390,508,813,38603
24400,507,823,38608
24410,509,847,38600
24420,512,802,38599
24430,509,799,38599
24440,512,829,38591
24450,511,826,38619
24460,514,791,38617
24470,514,789,38611
24480,511,837,38620
24490,512,815,38612
24500,513,823,38616
24510,511,830,38596
24520,515,831,38580
24530,512,820,38574
24540,510,793,38584
24550,515,819,38582
24560,510,796,38593
24570,515,847,38590
24580,514,823,38600
24590,511,835,38607
24600,516,777,38615
24610,510,729,38623
24620,512,718,38639
24630,509,734,38647
24640,508,699,38642
24650,514,720,38643
24660,509,751,38634
24670,510,751,38614
24680,511,799,38592
24690,509,820,38602
24700,512,843,38604
24710,508,815,38603
24720,509,802,38603
24730,508,831,38596
24740,504,856,38600
24750,506,790,38602
24760,506,781,38611
24770,505,817,38610
24780,508,790,38616
24790,506,765,38611
24800,508,822,38612
24810,511,836,38609
24820,509,818,38588
24830,511,779,38576
24840,504,806,38580
24850,510,840,38590
24860,507,807,38601
24870,508,792,38588
24880,508,837,38600
24890,504,836,38604
24900,511,770,38610
24910,507,723,38634
24920,507,729,38648
24930,512,706,38636
24940,508,706,38641
24950,509,702,38629
24960,508,747,38641
24970,508,743,38615
24980,509,808,38601
24990,510,844,38607
25000,509,848,38600
25010,510,797,38607
25020,510,793,38598
25030,512,842,38604
25040,511,781,38591
25050,513,798,38606
25060,514,760,38611
25070,515,769,38610
25080,513,774,38628
25090,511,819,38620
25100,515,845,38621
25110,513,841,38607
25120,510,825,38590
25130,513,800,38575
25140,512,798,38581
25150,512,830,38595
25160,512,840,38598
25170,509,807,38589
25180,508,812,38606
25190,509,799,38610
25200,509,798,38603
25210,509,720,38620
25220,510,728,38643
25230,512,724,38647
25240,510,688,38631
25250,510,679,38635
25260,510,779,38633
25270,509,795,38599
25280,509,794,38591
25290,509,801,38612
25300,510,810,38604
25310,509,795,38599
25320,505,804,38600
25330,509,814,38597
25340,504,806,38597
25350,504,791,38609
25360,507,776,38620
25370,507,760,38616
25380,506,798,38611
25390,508,797,38608
25400,505,801,38618
25410,508,782,38600
25420,505,805,38567
25430,505,803,38591
25440,507,844,38589
25450,502,838,38599
25460,505,830,38591
25470,501,831,38600
25480,502,801,38609
25490,503,802,38609
25500,503,792,38609
25510,505,789,38635
25520,502,695,38639
25530,504,714,38639
25540,504,713,38642
25550,502,739,38636
25560,501,748,38632
25570,497,742,38615
25580,499,796,38591
25590,502,801,38601
25600,498,843,38599
25610,500,782,38597
25620,499,839,38606
25630,497,808,38600
25640,496,787,38603
25650,496,792,38601
25660,500,807,38619
25670,499,728,38622
25680,499,808,38621
25690,499,781,38622
25700,497,801,38623
25710,497,846,38612
25720,494,789,38580
25730,494,818,38582
25740,495,781,38586
25750,486,787,38591
25760,490,763,38596
25770,490,819,38594
25780,487,803,38607
25790,487,828,38615
25800,481,771,38600
25810,479,740,38623
25820,473,673,38640
25830,467,725,38632
25840,465,748,38645
25850,456,694,38639
25860,449,705,38629
25870,445,760,38617
25880,436,836,38611
25890,433,798,38601
25900,435,811,38605
25910,432,841,38608
25920,435,829,38596
25930,432,782,38599
25940,432,816,38596
25950,431,830,38602
25960,434,820,38615
25970,435,789,38621
25980,434,720,38604
25990,439,799,38610
26000,442,793,38620
26010,446,803,38622
26020,451,812,38592
26030,456,820,38574
26040,464,813,38589
26050,470,841,38592
26060,475,812,38600
26070,483,808,38602
26080,484,840,38607
26090,492,825,38610
26100,497,807,38610
26110,503,766,38613
26120,507,718,38626
26130,512,723,38643
26140,517,714,38641
26150,520,696,38640
26160,520,688,38639
26170,524,775,38625
26180,523,825,38612
26190,527,818,38602
26200,530,808,38608
26210,534,840,38604
26220,538,831,38608
26230,538,812,38600
26240,536,803,38590
26250,534,850,38601
26260,522,802,38611
26270,494,778,38614
26280,463,745,38614
26290,428,820,38617
26300,407,808,38615
26310,393,802,38622
26320,392,822,38594
26330,397,840,38579
26340,404,812,38585
26350,423,807,38587
26360,443,844,38584
26370,463,826,38591
26380,480,819,38602
26390,498,809,38608
26400,514,792,38600
26410,525,747,38611
26420,538,735,38639
26430,543,706,38639
26440,554,723,38636
26450,557,728,38634
26460,560,730,38631
26470,563,747,38621
26480,563,818,38605
26490,562,827,38607
26500,564,807,38602
26510,564,815,38602
26520,567,823,38601
26530,565,850,38602
26540,566,835,38604
26550,564,818,38608
26560,563,813,38614
26570,560,788,38610
26580,561,754,38610
26590,556,850,38626
26600,557,814,38622
26610,555,829,38616
26620,557,819,38587
26630,559,811,38582
26640,557,834,38579
26650,560,839,38585
26660,565,808,38594
26670,564,812,38589
26680,568,839,38608
26690,570,817,38614
26700,574,797,38604
26710,571,741,38627
26720,574,700,38630
26730,574,707,38641
26740,569,693,38648
26750,571,726,38638
26760,567,717,38635
26770,568,736,38609
26780,564,770,38598
26790,561,819,38594
26800,561,807,38609
26810,558,827,38604
26820,561,789,38601
26830,559,782,38606
26840,558,761,38601
26850,557,798,38611
26860,554,812,38614
26870,558,787,38608
26880,557,826,38619
26890,554,786,38620
26900,555,777,38628
26910,555,834,38612
26920,554,836,38574
26930,548,839,38582
26940,549,823,38584
26950,548,849,38588
26960,546,823,38591
26970,542,814,38594
26980,541,833,38604
26990,532,861,38602
27000,535,774,38603
27010,530,735,38617
27020,529,726,38641
27030,530,728,38638
27040,525,688,38645
27050,527,712,38641
27060,523,709,38634
27070,519,775,38626
27080,517,806,38606
27090,511,808,38597
27100,509,839,38598
27110,504,802,38608
27120,499,824,38601
27130,498,818,38600
27140,492,830,38605
27150,493,802,38612
27160,490,823,38613
27170,488,786,38612
27180,488,735,38605
27190,485,796,38610
27200,484,843,38623
27210,482,836,38620
27220,481,832,38595
27230,480,822,38577
27240,478,819,38583
27250,478,853,38591
27260,477,796,38600
27270,478,825,38594
27280,478,793,38603
27290,478,782,38605
27300,479,816,38602
27310,480,744,38609
27320,476,745,38626
27330,482,696,38647
27340,481,697,38643
27350,482,686,38645
27360,478,713,38639
27370,479,735,38625
27380,482,796,38619
27390,483,801,38601
27400,481,828,38608
27410,483,815,38604
27420,481,800,38601
27430,484,713,38604
27440,483,815,38595
27450,486,821,38599
27460,488,804,38614
27470,488,806,38613
27480,490,774,38610
27490,488,803,38607
27500,489,826,38612
27510,492,815,38614
27520,490,827,38611
27530,491,856,38577
27540,493,816,38582
27550,494,831,38587
27560,500,833,38596
27570,500,827,38591
27580,503,826,38587
27590,506,812,38605
27600,507,830,38606
27610,511,862,38612
27620,510,727,38620
27630,514,742,38644
27640,513,696,38650
27650,512,704,38637
27660,512,729,38632
27670,513,640,38627
27680,514,795,38621
27690,514,743,38595
27700,511,809,38598
27710,512,805,38598
27720,512,810,38602
27730,510,784,38597
27740,511,808,38604
27750,510,869,38605
27760,514,792,38617
27770,512,814,38616
27780,514,794,38611
27790,513,724,38613
27800,512,822,38613
27810,511,709,38619
27820,513,863,38592
27830,512,850,38588
27840,511,807,38573
27850,511,798,38583
27860,512,820,38599
27870,509,819,38586
27880,508,839,38597
27890,508,818,38607
27900,505,780,38601
27910,506,741,38619
27920,507,721,38623
27930,508,708,38644
27940,504,679,38634
27950,503,725,38638
27960,503,715,38635
27970,504,737,38628
27980,501,792,38611
27990,502,825,38594
28000,500,840,38599
28010,503,829,38594
28020,500,831,38603
28030,501,809,38605
28040,502,812,38596
28050,499,812,38597
28060,503,838,38607
28070,499,788,38608
28080,504,777,38617
28090,504,869,38619
28100,503,839,38623
28110,506,833,38610
28120,505,832,38605
28130,502,847,38591
28140,503,834,38576
28150,501,810,38582
28160,502,825,38594
28170,503,862,38599
28180,502,829,38586
28190,506,844,38599
28200,503,836,38609
28210,505,800,38590
28220,506,776,38619
28230,507,722,38640
28240,510,708,38635
28250,509,733,38635
28260,509,741,38635
28270,509,731,38643
28280,507,783,38621
28290,508,854,38602
28300,509,838,38605
28310,507,830,38597
28320,509,847,38597
28330,510,822,38597
28340,513,845,38593
28350,513,813,38595
28360,515,835,38598
28370,516,816,38619
28380,517,770,38612
28390,518,749,38597
28400,517,821,38616
28410,517,814,38613
28420,517,825,38615
28430,517,853,38589
28440,520,809,38582
28450,516,817,38583
28460,515,848,38590
28470,517,833,38590
28480,515,802,38585
28490,517,822,38607
28500,518,808,38609
28510,516,818,38593
28520,518,761,38615
28530,514,724,38640
28540,514,718,38640
28550,515,697,38645
28560,515,685,38635
28570,514,721,38623
28580,512,776,38610
28590,509,814,38595
28600,507,819,38598
28610,505,827,38600
28620,506,807,38595
28630,506,827,38598
28640,508,829,38596
28650,507,839,38594
28660,509,827,38607
28670,509,802,38608
28680,505,784,38610
28690,507,833,38616
28700,507,847,38618
28710,505,817,38609
28720,508,816,38601
28730,505,822,38574
28740,505,808,38581
28750,504,816,38581
28760,503,826,38598
28770,502,833,38577
28780,503,797,38581
28790,500,844,38609
28800,502,840,38602
28810,502,797,38593
28820,506,732,38616
28830,504,715,38641
28840,504,707,38643
28850,505,721,38641
28860,501,740,38635
28870,504,732,38628
28880,504,757,38614
28890,498,811,38595
28900,502,845,38604
28910,500,839,38612
28920,500,821,38604
28930,499,824,38601
28940,501,834,38603
28950,500,805,38608
28960,497,823,38614
28970,499,836,38621
28980,499,750,38614
28990,499,797,38616
29000,503,800,38617
29010,501,817,38624
29020,500,774,38595
29030,505,788,38577
29040,504,788,38580
29050,504,802,38580
29060,501,811,38593
29070,502,796,38583
29080,503,833,38583
29090,501,796,38600
29100,505,784,38601
29110,504,733,38618
29120,506,720,38630
29130,505,708,38641
29140,501,696,38654
29150,501,683,38644
29160,501,702,38637
29170,498,745,38637
29180,498,734,38616
29190,495,808,38604
29200,496,854,38604
29210,494,805,38606
29220,495,772,38603
29230,501,814,38606
29240,496,792,38598
29250,498,797,38604
29260,495,804,38605
29270,499,786,38627
29280,502,737,38622
29290,498,806,38619
29300,499,795,38620
29310,502,802,38611
29320,499,809,38605
29330,499,796,38587
29340,499,828,38581
29350,501,793,38579
29360,500,810,38598
29370,495,799,38587
29380,499,809,38592
29390,502,775,38602
29400,501,809,38603
29410,502,755,38614
29420,502,703,38628
29430,505,701,38636
29440,502,696,38650
29450,505,681,38645
29460,504,718,38631
29470,505,738,38634
29480,507,809,38611
29490,508,779,38597
29500,508,778,38600
29510,509,848,38602
29520,507,784,38607
29530,509,797,38594
29540,507,818,38600
29550,506,800,38607
29560,507,782,38598
29570,506,812,38615
29580,507,770,38608
29590,507,819,38609
29600,505,798,38621
29610,508,821,38622
29620,504,812,38595
29630,505,791,38581
29640,503,819,38590
29650,502,808,38587
29660,502,815,38599
29670,501,810,38587
29680,501,816,38592
29690,503,799,38607
29700,500,775,38613
29710,501,791,38621
29720,501,688,38634
29730,505,715,38641
29740,505,689,38651
29750,503,692,38638
29760,504,703,38642
29770,502,727,38634
29780,501,792,38608
29790,500,823,38596
29800,501,800,38593
29810,503,810,38603
29820,502,822,38608
29830,506,821,38603
29840,503,799,38592
29850,504,885,38601
29860,506,803,38620
29870,505,785,38609
29880,505,740,38608
29890,506,800,38613
29900,507,784,38616
29910,508,810,38614
29920,504,797,38601
29930,503,791,38574
29940,504,813,38579
29950,502,779,38592
29960,507,792,38604
29970,504,810,38584
29980,505,802,38599
29990,505,805,38602
30000,504,791,38599
30010,508,758,38612
30020,507,723,38627
30030,508,688,38643
30040,509,688,38652
30050,504,696,38636
30060,506,698,38633
30070,504,708,38621
30080,499,804,38596
30090,502,793,38600
30100,499,799,38599
30110,503,800,38603
30120,502,808,38598
30130,501,790,38605
30140,504,803,38603
30150,503,819,38604
30160,504,797,38610
30170,500,750,38614
30180,500,717,38606
30190,504,809,38607
30200,502,777,38615
30210,507,801,38608
30220,504,799,38593
30230,503,806,38576
30240,507,791,38584
30250,507,806,38592
30260,506,799,38605
30270,508,807,38593
30280,506,781,38601
30290,508,778,38604
30300,506,781,38615
30310,511,705,38638
30320,508,662,38638
30330,507,725,38644
30340,509,690,38642
30350,507,691,38636
30360,509,746,38634
30370,509,733,38615
30380,505,813,38596
30390,508,800,38608
30400,507,800,38603
30410,507,770,38606
30420,509,822,38601
30430,510,806,38602
30440,512,801,38591
30450,512,797,38605
30460,513,784,38623
30470,513,745,38619
30480,514,733,38615
30490,515,818,38624
30500,515,779,38615
30510,515,809,38614
30520,519,788,38588
30530,519,825,38582
30540,521,807,38591
30550,520,813,38592
30560,522,819,38598
30570,524,801,38589
30580,525,803,38602
30590,527,798,38612
30600,525,747,38603
30610,525,692,38617
30620,528,694,38640
30630,523,683,38626
30640,526,682,38642
30650,524,727,38642
30660,523,719,38637
30670,524,755,38613
30680,522,807,38598
30690,522,796,38601
30700,521,812,38600
30710,519,798,38598
30720,521,797,38593
30730,520,800,38597
30740,520,790,38597
30750,520,781,38603
30760,521,803,38620
30770,521,752,38614
30780,520,727,38609
30790,521,798,38616
30800,522,788,38615
30810,524,846,38612
30820,521,796,38583
30830,522,835,38577
30840,521,808,38583
30850,522,815,38598
30860,520,796,38588
30870,523,826,38592
30880,519,795,38596
30890,518,802,38606
30900,518,764,38602
30910,516,704,38628
30920,520,663,38636
30930,519,708,38635
30940,518,686,38644
30950,518,700,38627
30960,514,713,38638
30970,512,789,38612
30980,513,788,38592
30990,515,818,38599
31000,513,807,38601
31010,514,793,38602
31020,515,807,38606
31030,516,775,38606
31040,514,834,38596
31050,515,758,38610
31060,514,798,38621
31070,516,736,38616
31080,512,701,38604
31090,513,810,38610
31100,516,872,38606
31110,515,800,38594
31120,515,827,38576
31130,520,820,38583
31140,515,806,38581
31150,514,874,38591
31160,514,774,38587
31170,513,807,38592
31180,510,816,38605
31190,512,845,38599
31200,514,798,38597
31210,512,768,38617
31220,511,701,38639
31230,513,694,38630
31240,512,607,38651
31250,514,703,38635
31260,513,651,38635
31270,511,792,38605
31280,508,818,38595
31290,508,812,38603
31300,508,795,38593
31310,505,840,38602
31320,506,824,38598
31330,507,838,38601
31340,503,820,38609
31350,503,692,38604
31360,500,793,38613
31370,503,758,38614
31380,504,747,38606
31390,501,812,38620
31400,502,849,38613
31410,502,781,38609
31420,503,798,38577
31430,505,815,38587
31440,503,804,38585
31450,506,801,38595
31460,505,799,38591
31470,506,809,38585
31480,506,800,38598
31490,505,785,38595
31500,507,802,38598
31510,506,709,38617
31520,506,700,38639
31530,506,688,38642
31540,503,700,38638
31550,506,722,38636
31560,503,701,38636
31570,501,791,38619
31580,502,799,38601
31590,500,816,38599
31600,499,788,38604
31610,500,824,38607
31620,499,804,38601
31630,500,807,38598
31640,498,802,38602
31650,498,806,38610
31660,497,769,38612
31670,496,787,38611
31680,495,778,38614
31690,496,830,38623
31700,496,799,38620
31710,495,812,38613
31720,491,827,38591
31730,493,799,38587
31740,495,799,38570
31750,494,800,38591
31760,493,810,38592
31770,492,791,38588
31780,496,818,38604
31790,492,770,38598
31800,490,785,38616
31810,490,748,38601
31820,489,697,38628
31830,491,708,38645
31840,489,710,38648
31850,489,699,38649
31860,491,693,38638
31870,490,764,38621
31880,491,762,38612
31890,490,773,38598
31900,492,800,38603
31910,492,814,38608
31920,490,810,38606
31930,490,807,38600
31940,492,806,38595
31950,492,819,38608
31960,490,780,38603
31970,488,763,38616
31980,489,778,38610
31990,489,792,38606
32000,490,782,38613
32010,491,812,38615
32020,490,805,38587
32030,488,804,38589
32040,492,791,38578
32050,489,811,38591
32060,491,792,38599
32070,493,796,38597
32080,491,791,38604
32090,491,820,38604
32100,488,772,38619
32110,490,756,38615
32120,486,725,38635
32130,487,690,38642
32140,490,692,38642
32150,489,703,38645
32160,493,727,38652
32170,494,716,38632
32180,492,796,38609
32190,493,781,38603
32200,491,830,38601
32210,496,790,38608
32220,496,784,38600
32230,493,806,38597
32240,495,818,38604
32250,498,805,38591
32260,499,794,38603
32270,498,798,38615
32280,497,761,38614
32290,495,825,38619
32300,497,838,38607
32310,497,812,38608
32320,500,787,38616
32330,501,801,38583
32340,502,772,38565
32350,499,827,38583
32360,500,790,38590
32370,499,819,38594
32380,498,798,38592
32390,499,803,38610
32400,497,770,38615
32410,499,801,38609
32420,501,773,38613
32430,500,700,38639
32440,500,674,38634
32450,500,660,38643
32460,504,727,38639
32470,502,686,38635
32480,504,723,38621
32490,501,776,38605
32500,499,799,38603
32510,499,789,38607
32520,500,820,38601
32530,498,804,38600
32540,505,810,38602
32550,498,795,38602
32560,501,806,38597
32570,499,772,38610
32580,499,783,38617
32590,501,718,38608
32600,498,791,38613
32610,498,798,38611
32620,498,788,38619
32630,497,828,38591
32640,500,786,38572
32650,500,809,38583
32660,498,798,38588
32670,500,803,38597
32680,497,790,38591
32690,499,824,38600
32700,498,771,38604
32710,497,775,38594
32720,498,766,38612
32730,497,694,38640
32740,501,692,38636
32750,502,691,38638
32760,502,717,38637
32770,504,704,38643
32780,501,788,38614
32790,504,789,38604
32800,501,806,38595
32810,501,819,38593
32820,500,801,38600
32830,499,810,38600
32840,501,795,38603
32850,500,802,38594
32860,501,802,38600
32870,504,778,38613
32880,502,778,38617
32890,504,745,38602
32900,503,795,38610
32910,505,780,38607
32920,509,807,38623
32930,508,815,38596
32940,509,809,38583
32950,509,805,38591
32960,507,795,38587
32970,510,848,38595
32980,507,794,38589
32990,508,804,38587
33000,510,788,38611
33010,506,774,38605
33020,505,756,38613
33030,505,692,38638
33040,505,671,38645
33050,508,659,38641
33060,504,692,38644
33070,507,700,38632
33080,504,710,38631
33090,504,815,38601
33100,502,801,38599
33110,501,811,38600
33120,500,797,38606
33130,497,811,38599
33140,494,793,38600
33150,497,818,38594
33160,498,775,38601
33170,498,793,38614
33180,496,767,38610
33190,497,738,38610
33200,497,817,38612
33210,497,793,38607
33220,498,807,38619
33230,498,808,38596
33240,498,816,38575
33250,498,791,38581
33260,497,830,38583
33270,498,794,38584
33280,500,815,38596
33290,499,789,38592
33300,502,793,38605
33310,500,819,38599
33320,500,763,38593
33330,502,713,38624
33340,498,700,38636
33350,502,687,38640
33360,501,686,38643
33370,504,726,38635
33380,502,704,38634
33390,499,836,38600
33400,499,769,38594
33410,499,809,38606
33420,500,780,38597
33430,502,809,38610
33440,500,803,38597
33450,504,807,38593
33460,502,804,38599
33470,500,788,38606
33480,501,795,38611
33490,504,732,38609
33500,503,772,38615
33510,499,782,38610
33520,504,807,38617
33530,505,775,38596
33540,505,813,38574
33550,507,808,38582
33560,508,809,38584
33570,508,799,38591
33580,506,821,38588
33590,505,800,38587
33600,507,809,38610
33610,507,794,38594
33620,509,746,38603
33630,509,693,38626
33640,509,682,38637
33650,514,689,38634
33660,514,714,38639
33670,515,716,38634
33680,515,712,38636
33690,512,794,38605
33700,514,765,38592
33710,512,815,38606
33720,513,792,38598
33730,514,785,38605
33740,513,799,38599
33750,515,797,38607
33760,513,782,38601
33770,515,815,38609
33780,516,769,38620
33790,512,763,38605
33800,512,817,38609
33810,510,781,38613
33820,511,823,38616
33830,511,773,38588
33840,510,829,38565
33850,509,803,38583
33860,508,803,38589
33870,508,801,38593
33880,509,829,38585
33890,508,792,38592
33900,508,778,38605
33910,510,803,38605
33920,509,740,38603
33930,512,660,38632
33940,516,689,38644
33950,513,702,38643
33960,514,710,38639
33970,515,717,38629
33980,519,700,38636
33990,519,840,38601
34000,519,778,38594
34010,522,805,38602
34020,523,803,38598
34030,525,805,38598
34040,527,786,38595
34050,527,827,38596
34060,528,794,38596
34070,529,791,38612
34080,529,769,38613
34090,529,730,38608
34100,529,794,38617
34110,529,795,38612
34120,528,815,38612
34130,527,791,38588
34140,527,830,38568
34150,526,792,38586
34160,527,836,38584
34170,526,774,38588
34180,528,818,38591
34190,527,802,38596
34200,529,801,38608
34210,532,769,38601
34220,530,745,38622
34230,538,696,38631
34240,540,665,38637
34250,542,696,38645
34260,544,679,38643
34270,543,689,38635
34280,541,774,38620
34290,540,819,38607
34300,536,791,38598
34310,536,798,38598
34320,532,808,38603
34330,533,791,38603
34340,532,818,38607
34350,531,799,38597
34360,531,792,38600
34370,528,774,38619
34380,529,759,38613
34390,530,741,38606
34400,527,800,38624
34410,529,800,38616
34420,526,802,38610
34430,526,787,38585
34440,524,802,38578
34450,521,816,38589
34460,520,812,38589
34470,520,829,38582
34480,515,810,38591
34490,519,800,38596
34500,512,780,38610
34510,515,796,38603
34520,511,730,38623
34530,511,688,38636
34540,512,685,38638
34550,510,676,38637
34560,509,713,38642
34570,506,706,38641
34580,505,744,38633
34590,504,802,38601
34600,502,793,38595
34610,501,800,38612
34620,501,814,38607
34630,498,793,38609
34640,498,815,38598
34650,494,795,38593
34660,496,797,38593
34670,494,804,38620
34680,493,758,38611
34690,493,738,38611
34700,492,802,38613
34710,493,785,38609
34720,490,802,38618
34730,487,796,38592
34740,489,808,38576
34750,489,812,38574
34760,488,806,38590
34770,488,795,38591
34780,483,828,38587
34790,487,784,38606
34800,484,799,38604
34810,486,789,38600
34820,486,736,38612
34830,484,687,38622
34840,488,688,38646
34850,485,689,38643
34860,484,680,38641
34870,485,711,38630
34880,483,739,38633
34890,484,791,38603
34900,482,818,38587
34910,478,803,38601
34920,481,821,38598
34930,480,792,38594
34940,481,794,38600
34950,483,804,38593
34960,485,769,38593
34970,485,793,38612
34980,486,764,38615
34990,488,735,38604
35000,486,793,38617
35010,486,810,38615
35020,487,797,38615
35030,486,806,38586
35040,488,787,38578
35050,488,806,38573
35060,490,782,38589
35070,495,833,38590
35080,494,802,38590
35090,496,809,38599
35100,497,798,38606
35110,497,758,38614
35120,501,709,38615
35130,507,693,38637
35140,509,703,38631
35150,511,710,38642
35160,512,704,38629
35170,513,715,38634
35180,512,769,38614
35190,515,796,38605
35200,516,819,38596
35210,515,824,38601
35220,518,824,38601
35230,520,788,38598
35240,519,807,38604
35250,522,804,38599
35260,524,802,38605
35270,526,803,38618
35280,523,763,38612
35290,525,814,38609
35300,525,802,38618
35310,520,821,38615
35320,522,823,38592
35330,520,818,38575
35340,517,792,38578
35350,515,827,38586
35360,510,820,38596
35370,507,806,38597
35380,502,802,38596
35390,497,778,38603
35400,490,805,38600
35410,486,793,38600
35420,484,716,38618
35430,483,712,38640
35440,485,718,38645
35450,487,720,38637
35460,487,657,38635
35470,487,720,38624
35480,485,791,38618
35490,486,816,38597
35500,487,803,38601
35510,490,799,38605
35520,492,823,38602
35530,496,788,38596
35540,497,834,38594
35550,501,843,38597
35560,499,809,38613
35570,502,727,38620
35580,504,758,38617
35590,505,839,38605
35600,508,793,38615
35610,508,818,38618
35620,511,824,38594
35630,516,803,38573
35640,515,849,38584
35650,518,795,38584
35660,520,821,38598
35670,522,799,38591
35680,520,824,38600
35690,520,834,38603
35700,522,780,38606
35710,520,742,38620
35720,524,720,38623
35730,523,739,38646
35740,521,717,38640
35750,523,712,38638
35760,524,687,38632
35770,523,769,38629
35780,525,822,38598
35790,522,818,38610
35800,524,784,38604
35810,525,823,38612
35820,524,812,38607
35830,523,792,38598
35840,522,847,38592
35850,523,790,38593
35860,520,780,38616
35870,518,761,38616
35880,514,771,38603
35890,513,830,38617
35900,511,797,38610
35910,510,761,38612
35920,508,829,38590
35930,507,817,38578
35940,506,821,38578
35950,506,808,38580
35960,506,801,38583
35970,505,825,38587
35980,504,844,38595
35990,502,792,38609
36000,503,781,38596
36010,504,737,38609
36020,502,708,38628
36030,504,760,38638
36040,503,695,38644
36050,504,691,38634
36060,504,710,38626
36070,503,788,38617
36080,506,848,38607
36090,503,820,38601
36100,504,777,38601
36110,503,815,38602
36120,505,851,38599
36130,507,777,38604
36140,507,792,38602
36150,508,806,38606
36160,509,822,38606
36170,513,820,38612
36180,512,723,38614
36190,511,797,38618
36200,511,809,38616
36210,514,824,38614
36220,516,854,38585
36230,520,814,38583
36240,520,786,38576
36250,518,786,38590
36260,521,852,38591
36270,518,803,38579
36280,517,816,38593
36290,520,780,38598
36300,521,817,38595
36310,526,726,38624
36320,523,721,38624
36330,526,706,38640
36340,526,717,38640
36350,526,709,38640
36360,526,705,38647
36370,527,754,38606
36380,526,820,38596
36390,526,802,38599
36400,528,863,38599
36410,528,794,38600
36420,528,804,38607
36430,529,799,38594
36440,529,829,38604
36450,529,861,38614
36460,532,756,38612
36470,533,752,38599
36480,527,817,38610
36490,527,822,38625
36500,526,798,38618
36510,527,808,38605
36520,524,836,38576
36530,526,818,38578
36540,526,802,38571
36550,524,818,38600
36560,525,799,38593
36570,523,842,38583
36580,522,791,38596
36590,524,779,38600
36600,520,752,38606
36610,525,723,38622
36620,522,716,38636
36630,522,685,38636
36640,518,692,38647
36650,518,658,38638
36660,516,740,38632
36670,513,756,38613
36680,511,816,38598
36690,510,830,38595
36700,510,830,38595
36710,510,800,38600
36720,508,811,38591
36730,508,793,38597
36740,511,827,38599
36750,509,801,38607
36760,510,783,38606
36770,510,772,38604
36780,506,804,38609
36790,507,818,38604
36800,510,818,38615
36810,507,815,38581
36820,511,797,38564
36830,507,811,38587
36840,508,792,38590
36850,505,850,38593
36860,503,833,38600
36870,511,835,38590
36880,504,801,38608
36890,503,803,38588
36900,502,784,38602
36910,503,710,38628
36920,503,713,38633
36930,501,682,38640
36940,503,749,38637
36950,500,696,38623
36960,503,723,38636
36970,500,812,38596
36980,502,858,38587
36990,502,811,38597
37000,500,813,38594
37010,501,798,38598
37020,503,853,38598
37030,502,815,38593
37040,504,799,38591
37050,503,725,38610
37060,503,826,38606
37070,505,732,38599
37080,503,805,38607
37090,503,801,38612
37100,502,798,38613
37110,500,829,38584
37120,503,803,38567
37130,502,815,38580
37140,502,852,38586
37150,500,833,38591
37160,498,775,38586
37170,499,815,38594
37180,495,804,38607
37190,496,867,38600
37200,495,741,38601
37210,494,718,38624
37220,494,698,38636
37230,495,727,38640
37240,497,707,38637
37250,496,715,38630
37260,495,758,38625
37270,496,827,38606
37280,494,839,38587
37290,497,786,38599
37300,499,844,38596
37310,495,856,38598
37320,498,844,38597
37330,498,792,38596
37340,499,827,38599
37350,501,810,38604
37360,499,818,38605
37370,503,796,38605
37380,502,806,38602
37390,504,801,38606
37400,509,841,38608
37410,511,840,38580
37420,520,806,38580
37430,524,828,38583
37440,528,821,38578
37450,531,805,38592
37460,533,816,38598
37470,537,822,38593
37480,536,846,38600
37490,537,819,38591
37500,535,769,38611
37510,534,726,38624
37520,534,687,38637
37530,528,739,38647
37540,527,710,38641
37550,530,673,38627
37560,526,744,38620
37570,526,842,38601
37580,523,772,38589
37590,521,790,38604
37600,520,832,38597
37610,516,820,38594
37620,515,777,38597
37630,512,805,38593
37640,511,828,38592
37650,509,836,38606
37660,505,754,38610
37670,506,758,38606
37680,502,851,38607
37690,501,834,38602
37700,501,795,38611
37710,498,832,38586
37720,499,829,38574
37730,500,798,38569
37740,495,826,38581
37750,498,820,38590
37760,495,861,38596
37770,493,820,38594
37780,492,804,38600
37790,491,776,38592
37800,493,805,38594
37810,493,703,38610
37820,492,698,38636
37830,494,671,38639
37840,492,686,38636
37850,493,719,38633
37860,491,734,38630
37870,490,787,38603
37880,486,780,38596
37890,488,805,38602
37900,487,761,38600
37910,486,823,38599
37920,488,785,38598
37930,484,800,38594
37940,485,790,38590
37950,485,775,38608
37960,481,755,38614
37970,480,751,38607
37980,477,801,38606
37990,474,817,38610
38000,471,781,38619
38010,469,774,38595
38020,465,819,38581
38030,463,777,38576
38040,459,824,38578
38050,460,826,38586
38060,457,805,38578
38070,451,777,38591
38080,449,829,38607
38090,444,814,38606
38100,444,772,38602
38110,444,715,38620
38120,444,693,38625
38130,445,694,38638
38140,444,686,38636
38150,445,692,38638
38160,449,702,38633
38170,452,739,38613
38180,453,784,38595
38190,451,832,38600
38200,455,823,38607
38210,458,770,38602
38220,459,795,38606
38230,462,773,38604
38240,464,781,38585
38250,468,794,38604
38260,468,764,38605
38270,468,747,38611
38280,468,774,38617
38290,471,801,38613
38300,473,833,38616
38310,474,811,38596
38320,474,772,38581
38330,478,823,38573
38340,478,764,38588
38350,482,783,38588
38360,484,794,38575
38370,489,793,38587
38380,491,796,38599
38390,494,784,38604
38400,496,769,38590
38410,501,724,38622
38420,503,703,38634
38430,508,683,38649
38440,508,683,38636
38450,514,670,38639
38460,515,737,38632
38470,513,776,38605
38480,516,833,38592
38490,515,790,38606
38500,517,783,38598
38510,520,779,38604
38520,518,780,38606
38530,521,817,38603
38540,518,770,38597
38550,521,805,38615
38560,524,745,38622
38570,522,743,38612
38580,523,811,38611
38590,522,825,38617
38600,523,786,38611
38610,524,789,38594
38620,520,788,38574
38630,524,788,38575
38640,523,817,38593
38650,526,784,38588
38660,528,791,38583
38670,530,816,38589
38680,530,808,38606
38690,530,810,38616
38700,533,747,38620
38710,537,684,38636
38720,534,716,38644
38730,534,700,38653
38740,535,685,38635
38750,536,722,38637
38760,536,774,38618
38770,535,796,38592
38780,536,774,38593
38790,536,813,38604
38800,535,811,38602
38810,538,785,38603
38820,534,801,38600
38830,533,827,38597
38840,536,801,38605
38850,536,772,38612
38860,534,755,38613
38870,535,747,38603
38880,535,801,38614
38890,533,810,38618
38900,533,816,38604
38910,536,798,38579
38920,537,772,38574
38930,535,789,38580
38940,539,832,38589
38950,535,796,38595
38960,538,789,38592
38970,542,785,38596
38980,541,817,38605
38990,540,773,38615
39000,541,729,38623
39010,539,707,38632
39020,539,711,38638
39030,538,672,38642
39040,538,724,38646
39050,539,724,38634
39060,538,766,38616
39070,537,793,38598
39080,535,775,38599
39090,535,820,38608
39100,534,809,38605
39110,532,782,38595
39120,532,794,38602
39130,533,819,38590
39140,533,768,38608
39150,534,774,38616
39160,532,791,38609
39170,532,730,38600
39180,528,802,38614
39190,529,783,38612
39200,534,821,38615
39210,530,821,38580
39220,531,813,38569
39230,528,792,38583
39240,531,848,38590
39250,531,804,38587
39260,531,773,38588
39270,530,797,38602
39280,527,808,38610
39290,527,801,38607
39300,524,747,38624
39310,525,712,38637
39320,524,703,38634
39330,522,709,38644
39340,520,674,38635
39350,517,731,38627
39360,516,768,38623
39370,514,799,38593
39380,512,789,38608
39390,511,823,38603
39400,510,825,38601
39410,509,789,38598
39420,507,798,38597
39430,507,804,38604
39440,506,825,38603
39450,502,785,38615
39460,505,767,38611
39470,508,808,38618
39480,504,784,38618
39490,505,771,38611
39500,506,808,38609
39510,506,821,38589
39520,508,789,38570
39530,504,797,38581
39540,505,812,38600
39550,507,799,38587
39560,504,801,38591
39570,505,793,38612
39580,506,794,38618
39590,506,773,38618
39600,504,689,38619
39610,504,730,38647
39620,505,710,38645
39630,504,685,38646
39640,504,684,38645
39650,504,736,38628
39660,504,758,38615
39670,502,811,38604
39680,503,808,38607
39690,502,812,38609
39700,505,795,38605
39710,500,786,38599
39720,502,821,38600
39730,500,811,38599
39740,499,795,38600
39750,499,772,38620
39760,499,787,38617
39770,500,786,38621
39780,500,816,38613
39790,499,814,38611
39800,500,832,38599
39810,501,785,38589
39820,501,785,38582
39830,495,808,38591
39840,498,811,38595
39850,500,790,38598
39860,499,795,38598
39870,500,787,38602
39880,498,778,38613
39890,497,814,38611
39900,497,728,38627
39910,500,684,38644
39920,501,701,38639
39930,502,668,38637
39940,502,665,38627
39950,501,705,38624
39960,499,781,38611
39970,499,799,38594
39980,497,815,38603
39990,497,771,38602
40000,499,790,38601
40010,497,812,38601
40020,500,816,38599
40030,497,786,38593
40040,499,769,38605
40050,499,817,38606
40060,500,741,38608
40070,498,798,38613
40080,498,811,38617
40090,496,856,38616
40100,495,772,38596
40110,496,787,38582
40120,492,796,38581
40130,494,817,38581
40140,493,786,38592
40150,495,819,38579
40160,495,769,38591
40170,493,797,38607
40180,494,789,38619
40190,493,755,38616
40200,494,727,38615
40210,494,669,38643
40220,493,667,38638
40230,494,722,38635
40240,491,721,38628
40250,492,773,38628
40260,494,777,38612
40270,490,778,38592
40280,493,776,38598
40290,492,806,38591
40300,490,821,38598
40310,490,827,38600
40320,491,828,38587
40330,492,779,38596
40340,492,788,38613
40350,491,787,38609
40360,492,743,38611
40370,494,821,38613
40380,495,791,38610
40390,493,794,38616
40400,494,834,38601
40410,494,794,38579
40420,494,776,38583
40430,496,814,38579
40440,495,789,38591
40450,494,782,38577
40460,496,821,38580
40470,489,813,38593
40480,490,783,38599
40490,490,764,38602
40500,488,742,38620
40510,489,665,38645
40520,492,692,38639
40530,492,697,38635
40540,490,701,38636
40550,493,720,38631
40560,494,747,38610
40570,495,824,38595
40580,496,793,38599
40590,498,794,38602
40600,499,811,38597
40610,501,796,38606
40620,500,788,38602
40630,503,803,38610
40640,505,774,38599
40650,506,809,38607
40660,507,752,38614
40670,506,796,38619
40680,505,804,38622
40690,510,811,38617
40700,509,811,38605
40710,510,814,38579
40720,509,789,38580
40730,509,792,38583
40740,508,845,38593
40750,506,795,38583
40760,507,795,38593
40770,504,784,38597
40780,502,792,38602
40790,500,743,38602
40800,503,756,38614
40810,498,671,38644
40820,503,690,38642
40830,507,698,38637
40840,508,725,38633
40850,508,709,38632
40860,507,769,38617
40870,506,797,38608
40880,508,816,38610
40890,507,800,38604
40900,506,796,38605
40910,509,840,38609
40920,508,781,38601
40930,506,806,38601
40940,505,771,38608
40950,502,781,38616
40960,500,711,38621
40970,502,818,38618
40980,503,774,38618
40990,506,797,38620
41000,507,797,38607
41010,505,801,38578
41020,507,798,38576
41030,512,811,38585
41040,514,821,38601
41050,514,814,38599
41060,514,801,38593
41070,515,787,38605
41080,515,841,38608
41090,518,765,38601
41100,518,726,38630
41110,515,675,38647
41120,513,693,38640
41130,515,678,38639
41140,514,712,38633
41150,512,723,38639
41160,513,741,38608
41170,512,810,38595
41180,511,786,38608
41190,514,793,38597
41200,514,812,38604
41210,517,812,38597
41220,515,822,38596
41230,518,800,38604
41240,520,783,38606
41250,521,799,38617
41260,520,737,38603
41270,517,786,38616
41280,519,813,38616
41290,520,796,38630
41300,521,785,38605
41310,523,809,38575
41320,520,808,38577
41330,519,792,38579
41340,524,806,38590
41350,521,793,38591
41360,521,855,38590
41370,522,766,38606
41380,520,813,38607
41390,519,765,38609
41400,522,704,38618
41410,523,681,38641
41420,522,731,38641
41430,519,677,38637
41440,520,719,38630
41450,517,728,38638
41460,518,739,38608
41470,519,806,38597
41480,519,813,38601
41490,519,805,38596
41500,518,817,38596
41510,517,815,38598
41520,517,800,38598
41530,516,790,38595
41540,514,804,38610
41550,516,788,38609
41560,517,755,38612
41570,517,816,38619
41580,516,796,38618
41590,516,820,38614
41600,519,782,38613
41610,518,798,38568
41620,519,807,38573
41630,515,796,38591
41640,514,788,38588
41650,513,806,38597
41660,509,801,38593
41670,507,797,38598
41680,502,791,38607
41690,503,771,38599
41700,502,725,38620
41710,499,691,38648
41720,500,706,38639
41730,499,697,38632
41740,499,704,38632
41750,500,698,38628
41760,499,789,38623
41770,496,794,38586
41780,496,804,38596
41790,499,793,38602
41800,494,807,38601
41810,493,782,38597
41820,496,818,38600
41830,492,784,38593
41840,493,802,38600
41850,493,785,38615
41860,492,737,38609
41870,494,806,38613
41880,494,783,38613
41890,494,796,38611
41900,493,814,38608
41910,493,796,38586
41920,492,806,38564
41930,494,821,38590
41940,496,811,38597
41950,499,796,38594
41960,496,790,38598
41970,498,803,38603
41980,497,807,38612
41990,497,767,38606
42000,500,697,38616
42010,500,700,38641
42020,502,685,38638
42030,499,679,38646
42040,499,714,38631
42050,497,711,38628
42060,494,768,38607
42070,491,803,38595
42080,487,807,38593
42090,487,799,38599
42100,486,821,38597
42110,484,790,38599
42120,483,807,38601
42130,485,796,38594
42140,486,795,38603
42150,489,816,38608
42160,492,738,38611
42170,494,711,38604
42180,498,801,38608
42190,496,794,38608
42200,498,791,38603
42210,499,823,38580
42220,502,797,38590
42230,502,809,38583
42240,500,790,38593
42250,501,795,38589
42260,501,827,38599
42270,504,829,38598
42280,507,813,38611
42290,506,780,38600
42300,511,727,38609
42310,510,701,38636
42320,512,688,38635
42330,516,697,38640
42340,513,725,38646
42350,506,746,38633
42360,501,764,38618
42370,495,800,38593
42380,494,816,38604
42390,497,866,38613
42400,504,793,38604
42410,503,849,38602
42420,504,808,38597
42430,509,788,38599
42440,510,812,38605
42450,509,722,38610
42460,509,767,38614
42470,506,833,38616
42480,508,772,38624
42490,507,814,38619
42500,509,821,38608
42510,512,829,38591
42520,511,788,38583
42530,518,755,38585
42540,522,806,38591
42550,526,847,38590
42560,528,783,38598
42570,527,879,38603
42580,526,809,38603
42590,521,767,38596
42600,522,709,38619
42610,519,729,38638
42620,518,688,38641
42630,518,675,38639
42640,517,711,38637
42650,514,715,38639
42660,514,776,38607
42670,513,820,38604
42680,517,798,38596
42690,515,833,38602
42700,518,801,38601
42710,520,819,38606
42720,518,823,38598
42730,519,810,38596
42740,519,819,38615
42750,521,771,38613
42760,523,773,38610
42770,523,763,38618
42780,523,808,38608
42790,524,807,38609
42800,524,815,38610
42810,527,835,38570
42820,529,822,38581
42830,528,823,38586
42840,534,815,38587
42850,532,817,38585
42860,534,818,38603
42870,528,833,38612
42880,526,816,38603
42890,525,722,38595
42900,531,707,38621
42910,538,700,38640
42920,537,698,38655
42930,538,703,38632
42940,542,707,38637
42950,543,765,38638
42960,544,770,38612
42970,540,790,38596
42980,542,828,38598
42990,541,806,38598
43000,541,771,38599
43010,539,827,38605
43020,534,782,38601
43030,530,804,38603
43040,521,785,38604
43050,503,800,38611
43060,495,711,38613
43070,487,794,38610
43080,481,786,38619
43090,477,819,38608
43100,472,798,38602
43110,470,800,38589
43120,466,843,38579
43130,464,796,38580
43140,459,806,38586
43150,454,808,38589
43160,442,825,38586
43170,434,787,38599
43180,424,803,38596
43190,419,780,38608
43200,414,736,38606
43210,413,689,38639
43220,413,691,38638
43230,415,680,38640
43240,420,710,38646
43250,422,711,38634
43260,429,792,38601
43270,432,821,38589
43280,435,780,38589
43290,442,803,38600
43300,447,801,38601
43310,451,839,38593
43320,456,801,38601
43330,460,800,38598
43340,469,781,38607
43350,470,820,38612
43360,479,746,38616
43370,482,697,38603
43380,484,811,38613
43390,488,802,38613
43400,491,772,38607
43410,496,802,38580
43420,501,823,38578
43430,502,794,38582
43440,508,800,38596
43450,510,795,38585
43460,512,802,38593
43470,520,802,38602
43480,517,793,38603
43490,524,795,38610
43500,525,709,38620
43510,530,681,38630
43520,533,715,38647
43530,534,675,38649
43540,539,705,38636
43550,539,719,38631
43560,541,729,38621
43570,543,810,38597
43580,542,789,38600
43590,547,803,38605
43600,545,802,38594
43610,548,812,38605
43620,548,809,38599
43630,547,796,38598
43640,549,818,38598
43650,545,819,38607
43660,548,781,38614
43670,547,709,38600
43680,544,808,38608
43690,543,836,38613
43700,543,761,38600
43710,538,775,38577
43720,537,823,38577
43730,534,787,38578
43740,535,787,38596
43750,540,818,38583
43760,550,831,38584
43770,552,803,38603
43780,549,757,38603
43790,549,765,38613
43800,550,714,38611
43810,552,704,38638
43820,561,688,38641
43830,561,701,38635
43840,567,687,38638
43850,569,724,38627
43860,568,780,38610
43870,565,789,38596
43880,558,800,38605
43890,546,807,38602
43900,549,801,38584
43910,544,798,38589
43920,537,825,38597
43930,528,779,38581
43940,518,800,38606
43950,511,761,38604
43960,506,763,38612
43970,503,696,38597
43980,497,816,38611
43990,493,815,38606
44000,494,812,38601
44010,485,769,38569
44020,486,793,38565
44030,480,817,38589
44040,478,795,38587
44050,476,783,38596
44060,470,821,38588
44070,471,807,38598
44080,468,764,38606
44090,468,769,38613
44100,468,718,38623
44110,464,700,38630
44120,468,645,38633
44130,463,712,38643
44140,456,681,38626
44150,456,739,38613
44160,453,764,38617
44170,450,794,38587
44180,447,800,38595
44190,442,796,38596
44200,437,839,38602
44210,428,792,38599
44220,423,814,38595
44230,418,797,38593
44240,412,792,38603
44250,410,751,38604
44260,406,780,38608
44270,401,771,38609
44280,399,792,38614
44290,402,801,38609
44300,402,813,38596
44310,404,804,38589
44320,411,813,38558
44330,414,836,38587
44340,417,825,38590
44350,423,806,38582
44360,427,799,38591
44370,432,849,38609
44380,440,777,38612
44390,448,748,38601
44400,456,730,38613
44410,462,697,38633
44420,471,668,38635
44430,478,701,38633
44440,477,704,38632
44450,488,712,38629
44460,488,737,38619
44470,492,780,38596
44480,499,809,38592
44490,502,809,38597
44500,510,811,38600
44510,515,804,38599
44520,520,798,38591
44530,527,786,38593
44540,525,824,38604
44550,531,777,38613
44560,529,779,38614
44570,535,717,38605
44580,536,780,38614
44590,535,794,38607
44600,538,808,38615
44610,540,808,38591
44620,538,786,38573
44630,541,813,38587
44640,535,795,38589
44650,535,800,38590
44660,532,824,38590
44670,530,814,38597
44680,532,802,38607
44690,526,774,38610
44700,528,752,38620
44710,530,699,38631
44720,528,673,38635
44730,532,709,38640
44740,534,708,38634
44750,536,724,38631
44760,544,732,38614
44770,543,819,38603
44780,554,800,38604
44790,564,796,38601
44800,576,806,38606
44810,588,807,38599
44820,596,766,38603
44830,606,820,38597
44840,598,789,38608
44850,599,784,38612
44860,599,793,38616
44870,600,798,38619
44880,604,828,38620
44890,601,792,38607
44900,599,809,38614
44910,598,787,38584
44920,594,808,38580
44930,597,771,38582
44940,596,816,38590
44950,595,805,38588
44960,600,827,38587
44970,598,792,38599
44980,600,778,38610
44990,599,767,38604
45000,595,745,38614
45010,598,727,38631
45020,592,687,38639
45030,587,698,38637
45040,581,670,38630
45050,573,726,38640
45060,572,715,38612
45070,562,825,38602
45080,559,814,38601
45090,552,783,38599
45100,540,776,38606
45110,536,833,38600
45120,524,808,38599
45130,517,807,38598
45140,507,826,38599
45150,498,786,38612
45160,485,752,38608
45170,474,717,38603
45180,462,814,38614
45190,455,809,38602
45200,447,799,38616
45210,442,795,38588
45220,445,834,38573
45230,442,796,38581
45240,440,797,38584
45250,438,821,38593
45260,438,792,38586
45270,438,792,38596
45280,439,789,38609
45290,445,785,38606
45300,448,752,38609
45310,459,695,38637
45320,460,685,38633
45330,465,684,38637
45340,472,707,38634
45350,474,716,38629
45360,481,760,38622
45370,481,829,38601
45380,483,799,38601
45390,484,798,38598
45400,480,802,38605
45410,485,808,38606
45420,486,832,38606
45430,485,798,38604
45440,492,779,38591
45450,491,804,38598
45460,491,776,38618
45470,492,720,38601
45480,496,807,38618
45490,508,793,38607
45500,514,804,38609
45510,520,795,38589
45520,528,777,38560
45530,539,811,38589
45540,552,799,38590
45550,558,784,38599
45560,565,811,38589
45570,571,796,38610
45580,569,794,38605
45590,578,777,38616
45600,581,755,38623
45610,583,671,38645
45620,582,707,38640
45630,579,680,38635
45640,581,708,38637
45650,575,707,38630
45660,573,736,38612
45670,567,811,38600
45680,564,786,38604
45690,564,796,38600
45700,560,816,38605
45710,557,803,38600
45720,557,786,38599
45730,552,812,38608
45740,552,783,38611
45750,548,794,38619
45760,549,730,38615
45770,548,795,38614
45780,539,811,38610
45790,540,806,38625
45800,540,792,38600
45810,534,809,38575
45820,540,795,38583
45830,536,790,38592
45840,537,818,38591
45850,533,811,38589
45860,530,805,38595
45870,532,799,38607
45880,521,781,38605
45890,520,739,38612
45900,516,738,38624
45910,506,685,38641
45920,495,696,38641
45930,484,644,38647
45940,480,698,38625
45950,475,704,38636
45960,470,771,38606
45970,466,807,38598
45980,458,791,38605
45990,454,808,38601
46000,446,790,38596
46010,434,815,38597
46020,429,815,38593
46030,419,802,38595
46040,413,791,38605
46050,408,766,38607
46060,407,733,38610
46070,414,827,38608
46080,413,774,38617
46090,416,805,38614
46100,422,795,38600
46110,423,801,38566
46120,429,800,38568
46130,433,802,38581
46140,434,815,38588
46150,439,786,38583
46160,442,810,38590
46170,450,784,38606
46180,454,776,38598
46190,460,755,38608
46200,468,694,38615
46210,472,706,38636
46220,479,686,38642
46230,482,681,38636
46240,485,752,38634
46250,490,713,38632
46260,491,769,38599
46270,495,798,38597
46280,498,800,38602
46290,500,794,38603
46300,508,809,38604
46310,507,785,38604
46320,509,815,38593
46330,512,778,38599
46340,512,783,38604
46350,518,751,38617
46360,520,740,38600
46370,522,796,38604
46380,529,814,38599
46390,537,809,38611
46400,552,800,38590
46410,567,827,38572
46420,580,792,38581
46430,587,820,38590
46440,591,823,38602
46450,591,807,38587
46460,587,771,38606
46470,590,816,38611
46480,592,757,38603
46490,585,747,38620
46500,592,701,38641
46510,588,691,38644
46520,588,677,38648
46530,584,722,38634
46540,577,716,38636
46550,573,740,38613
46560,566,783,38598
46570,563,777,38598
46580,560,843,38598
46590,553,779,38594
46600,553,824,38600
46610,548,798,38606
46620,545,805,38610
46630,541,790,38607
46640,524,827,38600
46650,517,756,38607
46660,504,705,38605
46670,494,787,38606
46680,486,789,38606
46690,476,803,38610
46700,466,798,38598
46710,455,823,38589
46720,444,815,38589
46730,436,803,38588
46740,424,799,38595
46750,419,797,38591
46760,410,812,38609
46770,407,788,38608
46780,406,761,38593
46790,406,734,38614
46800,412,676,38636
46810,415,694,38640
46820,421,711,38643
46830,427,669,38632
46840,427,703,38644
46850,432,740,38621
46860,432,780,38598
46870,432,823,38605
46880,436,798,38604
46890,434,805,38605
46900,438,808,38593
46910,441,804,38606
46920,446,790,38590
46930,452,785,38602
46940,452,781,38615
46950,461,779,38608
46960,468,712,38617
46970,483,782,38610
46980,499,812,38613
46990,506,806,38614
47000,519,775,38595
47010,533,823,38576
47020,539,805,38582
47030,544,801,38589
47040,544,827,38597
47050,547,812,38591
47060,550,825,38592
47070,550,777,38611
47080,555,779,38592
47090,555,788,38600
47100,555,690,38623
47110,554,698,38644
47120,548,696,38635
47130,546,693,38636
47140,537,690,38637
47150,532,747,38621
47160,521,775,38604
47170,506,794,38599
47180,500,805,38598
47190,496,799,38603
47200,493,799,38603
47210,492,814,38599
47220,490,830,38593
47230,488,809,38598
47240,483,821,38620
47250,482,757,38617
47260,480,724,38609
47270,472,796,38611
47280,465,793,38614
47290,457,804,38613
47300,447,793,38589
47310,440,788,38577
47320,429,824,38575
47330,424,787,38588
47340,420,825,38588
47350,413,808,38594
47360,410,791,38606
47370,404,753,38605
47380,396,777,38594
47390,391,756,38609
47400,386,697,38634
47410,387,684,38645
47420,390,669,38629
47430,396,729,38634
47440,402,696,38634
47450,406,766,38609
47460,413,816,38598
47470,418,800,38600
47480,426,787,38606
47490,429,812,38601
47500,433,803,38604
47510,440,801,38597
47520,443,798,38601
47530,448,785,38600
47540,453,775,38606
47550,458,735,38610
47560,467,792,38618
47570,470,791,38606
47580,475,817,38614
47590,477,787,38591
47600,477,821,38581
47610,477,803,38580
47620,482,814,38587
47630,481,802,38587
47640,483,819,38590
47650,484,832,38590
47660,488,797,38602
47670,490,793,38606
47680,494,762,38595
47690,501,710,38614
47700,510,685,38642
47710,520,664,38641
47720,527,696,38639
47730,538,717,38636
47740,566,721,38634
47750,608,766,38605
47760,638,803,38598
47770,659,813,38606
47780,664,776,38602
47790,671,796,38597
47800,673,807,38603
47810,680,810,38602
47820,683,790,38598
47830,684,813,38602
47840,686,791,38618
47850,682,697,38615
47860,681,797,38617
47870,681,819,38616
47880,675,843,38620
47890,671,774,38600
47900,664,792,38571
47910,656,819,38583
47920,652,826,38589
47930,641,784,38594
47940,635,822,38586
47950,622,775,38587
47960,612,811,38606
47970,604,792,38604
47980,592,760,38604
47990,582,750,38635
48000,568,696,38641
48010,555,715,38646
48020,546,703,38644
48030,526,721,38636
48040,517,707,38628
48050,501,679,38607
48060,483,795,38595
48070,477,700,38603
48080,473,821,38606
48090,474,787,38609
48100,473,799,38602
48110,471,830,38596
48120,472,801,38597
48130,470,790,38607
48140,471,800,38612
48150,471,715,38598
48160,468,778,38615
48170,471,827,38611
48180,468,804,38618
48190,468,811,38588
48200,469,810,38577
48210,467,804,38585
48220,466,838,38585
48230,464,793,38594
48240,467,830,38589
48250,465,781,38605
48260,466,813,38611
48270,468,763,38604
48280,468,743,38622
48290,471,586,38637
48300,475,755,38638
48310,476,704,38635
48320,477,668,38638
48330,476,718,38640
48340,474,763,38612
48350,477,891,38598
48360,476,806,38595
48370,480,799,38601
48380,480,796,38600
48390,481,800,38598
48400,484,821,38598
48410,487,865,38603
48420,491,834,38609
48430,491,788,38612
48440,492,771,38612
48450,493,847,38613
48460,495,795,38614
48470,497,835,38616
48480,501,830,38601
48490,504,823,38568
48500,509,816,38574
48510,512,838,38581
48520,514,815,38591
48530,516,806,38593
48540,517,807,38591
48550,520,806,38605
48560,525,773,38604
48570,533,759,38617
48580,547,707,38627
48590,561,729,38638
48600,591,685,38634
48610,608,683,38641
48620,616,723,38628
48630,615,715,38639
48640,604,798,38600
48650,594,788,38599
48660,572,795,38610
48670,554,805,38604
48680,541,816,38609
48690,523,769,38597
48700,514,807,38597
48710,500,802,38605
48720,491,814,38603
48730,476,785,38612
48740,460,718,38609
48750,443,834,38616
48760,425,846,38611
48770,406,778,38617
48780,390,791,38596
48790,361,836,38575
48800,334,839,38580
48810,303,783,38587
48820,275,794,38598
48830,257,822,38592
48840,247,788,38591
48850,253,797,38621
48860,262,749,38607
48870,272,764,38621
48880,291,707,38643
48890,304,649,38642
48900,320,682,38643
48910,334,697,38643
48920,346,723,38630
48930,364,721,38620
48940,375,794,38602
48950,394,783,38604
48960,406,807,38602
48970,422,778,38598
48980,440,845,38598
48990,450,836,38594
49000,464,814,38592
49010,474,763,38606
49020,489,830,38608
49030,499,795,38617
49040,509,697,38614
49050,520,788,38613
49060,529,779,38617
49070,536,800,38618
49080,547,803,38587
49090,552,797,38584
49100,557,818,38582
49110,568,804,38585
49120,573,790,38602
49130,583,814,38591
49140,585,784,38590
49150,601,800,38609
49160,611,778,38600
49170,615,724,38613
49180,624,675,38625
49190,635,701,38645
49200,654,686,38651
49210,671,665,38636
49220,682,705,38634
49230,699,717,38628
49240,715,745,38616
49250,728,814,38601
49260,740,781,38602
49270,743,800,38601
49280,754,781,38598
49290,753,797,38597
49300,753,811,38592
49310,755,791,38601
49320,749,796,38610
49330,749,783,38622
49340,745,719,38611
49350,733,790,38609
49360,716,805,38620
49370,691,806,38619
49380,670,802,38602
49390,655,796,38578
49400,636,814,38566
49410,624,820,38600
49420,609,796,38594
49430,596,792,38582
49440,582,801,38598
49450,564,784,38611
49460,550,755,38601
49470,535,773,38618
49480,528,686,38631
49490,522,704,38643
49500,514,665,38646
49510,514,688,38632
49520,508,729,38642
49530,505,737,38626
49540,507,799,38608
49550,504,817,38614
49560,507,803,38610
49570,505,840,38603
49580,504,798,38607
49590,505,803,38600
49600,503,826,38601
49610,508,830,38598
49620,504,788,38611
49630,506,774,38618
49640,509,755,38609
49650,509,822,38614
49660,514,810,38619
49670,515,833,38618
49680,515,831,38602
49690,519,807,38566
49700,516,803,38587
49710,520,849,38585
49720,524,833,38588
49730,525,796,38586
49740,529,791,38594
49750,525,834,38597
49760,525,810,38605
49770,517,769,38612
49780,505,704,38626
49790,500,739,38643
49800,496,700,38645
49810,499,682,38636
49820,506,737,38631
49830,520,774,38624
49840,548,812,38604
49850,550,780,38600
49860,552,827,38606
49870,551,873,38600
49880,545,789,38600
49890,546,801,38604
49900,537,826,38600
49910,534,838,38609
49920,532,778,38600
49930,524,802,38612
49940,522,718,38605
49950,511,835,38607
49960,504,783,38614
49970,504,827,38614
49980,499,819,38592
49990,497,832,38581
50000,494,790,38576
50010,490,837,38592
50020,487,828,38603
50030,481,813,38596
50040,480,840,38596
50050,474,815,38604
50060,472,811,38605
50070,471,765,38622
50080,470,697,38631
50090,474,683,38643
50100,473,720,38639
50110,472,705,38633
50120,473,743,38646
50130,468,745,38621
50140,464,801,38605
50150,461,810,38606
50160,458,839,38604
50170,461,835,38599
50180,459,815,38603
50190,462,809,38603
50200,459,811,38603
50210,458,841,38597
50220,458,779,38616
50230,458,792,38612
50240,459,755,38616
50250,460,782,38612
50260,459,784,38612
50270,463,843,38618
50280,461,817,38593
50290,462,792,38581
50300,465,812,38584
50310,465,828,38600
50320,467,827,38600
50330,467,780,38588
50340,470,798,38600
50350,473,819,38610
50360,471,813,38608
50370,477,712,38622
50380,479,693,38642
50390,480,725,38640
50400,483,737,38647
50410,484,684,38636
50420,490,708,38642
50430,489,776,38605
50440,491,845,38600
50450,499,787,38608
50460,499,799,38601
50470,504,821,38601
50480,502,827,38598
50490,505,760,38598
50500,507,823,38599
50510,512,838,38603
50520,513,798,38612
50530,511,704,38606
50540,512,816,38613
50550,516,818,38604
50560,513,807,38621
50570,515,794,38598
50580,515,837,38570
50590,509,824,38580
50600,508,798,38592
50610,501,834,38602
50620,498,809,38586
50630,491,857,38592
50640,490,805,38614
50650,494,794,38595
50660,492,748,38612
50670,490,715,38629
50680,491,691,38643
50690,486,722,38633
50700,485,686,38638
50710,482,714,38621
50720,481,715,38631
50730,480,809,38606
50740,476,806,38597
50750,477,809,38604
50760,476,798,38602
50770,478,794,38602
50780,478,818,38602
50790,475,781,38603
50800,480,812,38598
50810,477,800,38613
50820,480,768,38611
50830,479,712,38608
50840,479,814,38613
50850,487,838,38610
50860,488,832,38613
50870,490,827,38599
50880,497,792,38566
50890,500,792,38570
50900,506,811,38588
50910,508,830,38601
50920,512,818,38597
50930,517,813,38606
50940,513,806,38614
50950,517,838,38599
50960,517,750,38604
50970,520,729,38632
50980,521,721,38645
50990,518,675,38639
51000,519,671,38637
51010,517,741,38639
51020,519,753,38619
51030,517,793,38603
51040,516,812,38603
51050,516,804,38597
51060,513,791,38593
51070,510,817,38602
51080,509,791,38596
51090,506,803,38594
51100,509,773,38600
51110,506,788,38615
51120,499,798,38609
51130,499,720,38605
51140,496,800,38617
51150,495,807,38615
51160,495,796,38620
51170,494,804,38593
51180,493,805,38578
51190,494,848,38588
51200,493,862,38588
51210,492,822,38593
51220,487,803,38585
51230,488,787,38592
51240,485,827,38607
51250,483,831,38610
51260,482,789,38602
51270,479,696,38625
51280,476,716,38643
51290,478,727,38638
51300,472,690,38643
51310,471,741,38629
51320,466,755,38637
51330,467,802,38605
51340,462,764,38601
51350,458,852,38602
51360,459,820,38599
51370,453,819,38602
51380,458,799,38598
51390,456,807,38592
51400,456,772,38599
51410,457,808,38609
51420,453,781,38614
51430,458,747,38608
51440,459,797,38619
51450,457,805,38617
51460,462,824,38620
51470,460,804,38590
51480,464,820,38574
51490,466,788,38590
51500,467,797,38595
51510,473,780,38587
51520,472,814,38596
51530,475,831,38596
51540,480,848,38608
51550,481,816,38597
51560,486,753,38607
51570,487,691,38636
51580,489,725,38645
51590,497,744,38635
51600,499,689,38641
51610,503,693,38643
51620,502,736,38630
51630,502,859,38608
51640,506,794,38600
51650,508,810,38604
51660,510,835,38605
51670,510,805,38605
51680,513,786,38602
51690,515,825,38596
51700,513,832,38592
51710,519,790,38609
51720,515,766,38614
51730,519,729,38607
51740,520,794,38617
51750,517,815,38605
51760,519,808,38612
51770,520,808,38594
51780,519,803,38575
51790,521,793,38585
51800,519,835,38576
51810,519,798,38594
51820,514,803,38583
51830,513,803,38594
51840,512,790,38605
51850,509,781,38603
51860,510,766,38604
51870,514,712,38636
51880,512,701,38635
51890,511,723,38633
51900,508,686,38643
51910,505,686,38627
51920,508,761,38638
51930,508,820,38601
51940,512,814,38594
51950,508,801,38606
51960,510,814,38597
51970,512,863,38601
51980,511,797,38600
51990,511,810,38600
52000,512,835,38594
52010,511,807,38611
52020,510,776,38619
52030,507,752,38610
52040,507,833,38612
52050,501,799,38615
52060,503,801,38613
52070,501,816,38592
52080,499,833,38580
52090,504,806,38583
52100,502,805,38580
52110,500,810,38587
52120,499,807,38583
52130,503,797,38591
52140,505,836,38599
52150,505,779,38600
52160,506,760,38606
52170,512,720,38621
52180,515,672,38639
52190,523,673,38642
52200,525,700,38642
52210,528,703,38644
52220,533,717,38632
52230,533,758,38607
52240,538,788,38594
52250,538,797,38602
52260,540,810,38605
52270,545,843,38602
52280,539,855,38605
52290,541,829,38602
52300,542,794,38603
52310,541,817,38611
52320,543,800,38616
52330,543,762,38607
52340,540,813,38620
52350,539,812,38614
52360,535,835,38619
52370,540,805,38596
52380,538,805,38583
52390,536,835,38587
52400,538,827,38585
52410,534,795,38592
52420,532,798,38580
52430,533,836,38588
52440,531,830,38600
52450,529,796,38601
52460,527,786,38609
52470,528,724,38622
52480,524,722,38641
52490,521,680,38643
52500,524,671,38633
52510,518,694,38635
52520,518,708,38632
52530,512,726,38623
52540,509,801,38591
52550,508,801,38596
52560,504,810,38605
52570,504,798,38600
52580,502,794,38599
52590,504,797,38600
52600,504,800,38593
52610,500,837,38607
52620,503,810,38605
52630,502,791,38619
52640,504,727,38608
52650,509,848,38615
52660,506,798,38613
52670,510,792,38603
52680,512,805,38578
52690,510,800,38585
52700,512,790,38583
52710,509,818,38599
52720,510,807,38585
52730,510,806,38592
52740,511,801,38596
52750,508,791,38600
52760,509,754,38609
52770,507,730,38624
52780,509,689,38634
52790,504,706,38638
52800,508,690,38650
52810,503,690,38638
52820,504,745,38633
52830,501,758,38615
52840,498,808,38592
52850,498,798,38607
52860,493,805,38610
52870,492,780,38604
52880,493,818,38593
52890,489,800,38603
52900,492,809,38598
52910,487,798,38609
52920,488,786,38612
52930,493,803,38610
52940,492,785,38612
52950,492,805,38613
52960,493,813,38618
52970,490,801,38605
52980,493,785,38576
52990,494,821,38583
53000,495,798,38580
53010,494,820,38587
53020,490,803,38592
53030,485,792,38581
53040,488,798,38601
53050,489,809,38609
53060,486,776,38611
53070,484,751,38617
53080,485,696,38635
53090,478,680,38638
53100,479,714,38644
53110,482,682,38636
53120,481,743,38648
53130,483,759,38611
53140,482,796,38589
53150,481,783,38605
53160,480,815,38598
53170,480,808,38601
53180,482,810,38603
53190,480,834,38604
53200,484,808,38593
53210,485,795,38616
53220,485,799,38617
53230,489,760,38610
53240,490,844,38617
53250,494,803,38614
53260,495,786,38616
53270,496,806,38605
53280,498,854,38579
53290,499,800,38577
53300,503,814,38578
53310,505,831,38591
53320,505,817,38590
53330,509,825,38591
53340,507,781,38608
53350,508,839,38602
53360,512,769,38611
53370,512,728,38630
53380,518,706,38637
53390,515,754,38641
53400,515,680,38643
53410,516,695,38635
53420,513,772,38627
53430,517,771,38611
53440,516,791,38598
53450,516,819,38606
53460,516,828,38605
53470,517,805,38602
53480,522,755,38596
53490,518,816,38605
53500,522,809,38593
53510,522,789,38608
53520,520,796,38618
53530,528,797,38612
53540,526,845,38615
53550,523,819,38618
53560,523,828,38623
53570,522,801,38599
53580,524,833,38591
53590,525,841,38586
53600,522,807,38582
53610,525,856,38593
53620,522,822,38588
53630,524,812,38596
53640,524,764,38601
53650,523,838,38619
53660,529,688,38602
53670,524,737,38641
53680,525,716,38640
53690,523,763,38639
53700,522,702,38631
53710,519,695,38634
53720,516,766,38635
53730,517,833,38612
53740,513,789,38603
53750,509,762,38597
53760,508,826,38604
53770,505,797,38601
53780,505,804,38603
53790,506,841,38598
53800,503,811,38600
53810,504,811,38616
53820,502,762,38620
53830,502,769,38611
53840,502,828,38625
53850,504,747,38613
53860,504,822,38616
53870,503,825,38607
53880,505,820,38594
53890,503,777,38578
53900,506,779,38585
53910,510,835,38590
53920,510,829,38597
53930,507,711,38600
53940,509,848,38607
53950,506,809,38609
53960,506,823,38606
53970,507,674,38633
53980,509,726,38647
53990,512,700,38636
54000,510,721,38648
54010,512,684,38639
54020,513,790,38628
54030,515,763,38608
54040,519,833,38597
54050,517,825,38617
54060,520,796,38608
54070,521,818,38598
54080,522,821,38599
54090,524,805,38603
54100,524,801,38600
54110,523,785,38602
54120,523,781,38617
54130,522,752,38618
54140,523,798,38614
54150,517,810,38610
54160,516,827,38625
54170,514,796,38591
54180,510,817,38584
54190,510,828,38584
54200,504,799,38585
54210,502,815,38585
54220,500,812,38592
54230,499,780,38598
54240,501,769,38604
54250,498,802,38603
54260,497,754,38608
54270,498,691,38632
54280,499,693,38645
54290,501,707,38643
54300,499,691,38641
54310,499,716,38638
54320,498,757,38626
54330,497,785,38612
54340,501,775,38606
54350,499,802,38605
54360,502,825,38601
54370,501,811,38600
54380,500,787,38605
54390,502,783,38602
54400,501,780,38597
54410,500,771,38610
54420,500,798,38621
54430,495,739,38613
54440,497,800,38620
54450,497,798,38615
54460,498,789,38616
54470,500,814,38597
54480,501,788,38574
54490,498,798,38577
54500,501,836,38592
54510,499,789,38589
54520,499,785,38596
54530,498,828,38598
54540,498,814,38602
54550,499,788,38606
54560,497,725,38617
54570,503,707,38636
54580,499,691,38650
54590,499,699,38643
54600,499,683,38646
54610,498,716,38632
54620,500,736,38624
54630,496,775,38605
54640,501,788,38603
54650,500,802,38615
54660,496,804,38605
54670,500,799,38603
54680,498,825,38596
54690,498,796,38605
54700,500,829,38614
54710,500,761,38620
54720,502,765,38623
54730,499,740,38609
54740,503,776,38608
54750,505,783,38618
54760,501,810,38620
54770,505,796,38594
54780,504,793,38583
54790,501,776,38587
54800,503,807,38594
54810,502,833,38596
54820,503,817,38590
54830,500,820,38605
54840,501,827,38607
54850,504,774,38604
54860,501,718,38621
54870,500,701,38643
54880,497,703,38649
54890,500,679,38648
54900,499,671,38657
54910,497,704,38636
54920,498,746,38632
54930,498,805,38618
54940,498,774,38601
54950,502,835,38601
54960,501,840,38593
54970,501,794,38604
54980,502,828,38604
54990,502,819,38606
55000,505,843,38603
55010,502,831,38616
55020,502,787,38609
55030,502,740,38609
55040,499,816,38617
55050,501,795,38619
55060,501,816,38625
55070,499,839,38593
55080,497,796,38577
55090,497,801,38594
55100,497,803,38585
55110,496,798,38595
55120,497,831,38596
55130,500,809,38603
55140,498,793,38611
55150,502,784,38606
55160,500,753,38620
55170,503,703,38632
55180,505,728,38640
55190,503,725,38645
55200,504,694,38644
55210,507,684,38642
55220,504,755,38629
55230,506,804,38607
55240,509,817,38600
55250,509,803,38612
55260,511,835,38606
55270,508,858,38611
55280,511,800,38604
55290,509,809,38602
55300,512,830,38610
55310,512,812,38612
55320,510,760,38616
55330,507,759,38613
55340,506,811,38603
55350,506,805,38612
55360,506,835,38628
55370,505,826,38602
55380,505,785,38573
55390,508,811,38588
55400,505,797,38591
55410,508,836,38597
55420,508,810,38594
55430,508,800,38601
55440,505,830,38607
55450,509,773,38616
55460,509,788,38614
55470,508,726,38630
55480,511,691,38637
55490,507,685,38636
55500,510,710,38650
55510,509,710,38631
55520,512,761,38635
55530,512,798,38608
55540,510,822,38594
55550,508,807,38607
55560,509,822,38608
55570,507,829,38606
55580,508,807,38607
55590,507,810,38603
55600,507,814,38607
55610,509,803,38605
55620,505,793,38619
55630,506,758,38613
55640,504,846,38618
55650,505,820,38611
55660,507,799,38619
55670,504,788,38613
55680,504,827,38583
55690,503,847,38578
55700,504,806,38588
55710,505,818,38599
55720,505,835,38602
55730,510,828,38591
55740,508,809,38611
55750,505,831,38602
55760,505,773,38600
55770,504,714,38623
55780,509,673,38644
55790,507,705,38640
55800,508,694,38644
55810,508,723,38643
55820,508,739,38642
55830,509,786,38605
55840,507,815,38595
55850,507,786,38599
55860,508,812,38604
55870,506,823,38598
55880,508,804,38597
55890,510,794,38596
55900,513,836,38605
55910,514,791,38612
55920,513,822,38620
55930,513,778,38619
55940,516,807,38617
55950,512,793,38617
55960,511,840,38621
55970,506,835,38613
55980,507,796,38592
55990,507,801,38592
56000,506,828,38592
56010,506,798,38589
56020,507,804,38599
56030,506,809,38593
56040,506,841,38607
56050,506,786,38608
56060,503,769,38601
56070,506,720,38628
56080,506,729,38646
56090,508,697,38640
56100,507,700,38641
56110,511,707,38631
56120,510,715,38638
56130,508,766,38613
56140,510,807,38600
56150,507,801,38600
56160,512,836,38602
56170,508,810,38601
56180,516,790,38601
56190,518,818,38603
56200,520,771,38600
56210,522,823,38611
56220,520,805,38619
56230,522,754,38613
56240,524,696,38613
56250,521,800,38620
56260,521,836,38624
56270,520,848,38608
56280,519,836,38583
56290,517,806,38588
56300,517,827,38586
56310,520,808,38593
56320,514,831,38599
56330,511,806,38591
56340,516,802,38607
56350,518,776,38602
56360,516,813,38607
56370,518,699,38631
56380,516,725,38637
56390,516,728,38643
56400,515,703,38651
56410,515,707,38636
56420,516,722,38627
56430,512,801,38614
56440,514,811,38605
56450,509,805,38611
56460,509,822,38608
56470,510,821,38606
56480,508,802,38607
56490,507,828,38596
56500,505,821,38605
56510,506,796,38620
56520,502,782,38617
56530,499,726,38605
56540,496,804,38618
56550,494,811,38607
56560,486,807,38618
56570,491,795,38592
56580,485,806,38580
56590,483,807,38582
56600,479,817,38584
56610,476,813,38589
56620,476,805,38590
56630,472,822,38600
56640,469,803,38613
56650,469,791,38602
56660,467,714,38612
56670,471,708,38632
56680,467,692,38646
56690,468,692,38650
56700,468,734,38642
56710,469,711,38640
56720,470,737,38632
56730,469,788,38609
56740,468,820,38606
56750,473,805,38613
56760,474,815,38602
56770,477,814,38598
56780,480,828,38603
56790,482,799,38601
56800,480,796,38605
56810,482,802,38622
56820,486,747,38621
56830,487,735,38611
56840,489,822,38623
56850,493,811,38617
56860,496,829,38614
56870,498,814,38588
56880,500,803,38575
56890,499,820,38578
56900,503,853,38582
56910,504,810,38595
56920,505,811,38590
56930,507,797,38605
56940,508,832,38613
56950,510,793,38614
56960,511,723,38618
56970,513,731,38632
56980,515,711,38646
56990,516,683,38652
57000,517,698,38645
57010,518,751,38643
57020,521,779,38621
57030,522,805,38604
57040,525,795,38592
57050,528,862,38611
57060,526,780,38604
57070,530,808,38603
57080,531,833,38606
57090,530,827,38603
57100,530,796,38601
57110,528,802,38617
57120,527,799,38616
57130,526,765,38605
57140,527,804,38617
57150,527,798,38618
57160,528,830,38624
57170,526,791,38592
57180,526,816,38576
57190,523,838,38582
57200,526,832,38586
57210,525,799,38593
57220,524,813,38602
57230,524,825,38596
57240,521,809,38610
57250,521,803,38610
57260,522,722,38623
57270,522,723,38647
57280,521,710,38659
57290,521,688,38660
57300,520,710,38647
57310,516,740,38647
57320,520,768,38607
57330,515,795,38601
57340,515,847,38608
57350,516,823,38612
57360,518,816,38605
57370,520,790,38608
57380,519,830,38604
57390,519,788,38605
57400,521,793,38607
57410,519,795,38620
57420,520,791,38615
57430,523,708,38611
57440,520,783,38627
57450,521,821,38624
57460,522,835,38616
57470,523,818,38590
57480,524,819,38592
57490,523,849,38593
57500,521,798,38600
57510,519,820,38612
57520,517,816,38599
57530,519,847,38610
57540,518,798,38608
57550,519,774,38609
57560,520,739,38632
57570,518,707,38640
57580,515,708,38651
57590,516,709,38643
57600,517,739,38651
57610,515,703,38639
57620,515,772,38607
57630,515,814,38594
57640,514,834,38607
57650,514,818,38604
57660,514,802,38597
57670,514,833,38603
57680,513,831,38598
57690,510,800,38609
57700,507,802,38614
57710,508,809,38623
57720,505,741,38616
57730,507,798,38615
57740,508,810,38612
57750,506,804,38625
57760,505,808,38602
57770,505,805,38585
57780,507,821,38590
57790,506,825,38595
57800,506,811,38595
57810,507,831,38589
57820,506,857,38607
57830,508,811,38608
57840,508,797,38604
57850,510,762,38608
57860,510,711,38619
57870,509,708,38641
57880,511,708,38653
57890,510,706,38638
57900,513,736,38634
57910,515,745,38626
57920,514,793,38604
57930,514,829,38598
57940,512,825,38596
57950,513,809,38609
57960,512,791,38603
57970,512,862,38605
57980,509,820,38598
57990,507,807,38607
58000,507,806,38622
58010,507,773,38623
58020,504,752,38617
58030,504,800,38616
58040,506,803,38627
58050,504,811,38624
58060,504,824,38596
58070,501,786,38580
58080,502,818,38589
58090,501,785,38588
58100,498,814,38601
58110,498,836,38592
58120,499,807,38609
58130,497,787,38610
58140,495,805,38609
58150,494,727,38623
58160,498,725,38630
58170,494,726,38647
58180,495,696,38649
58190,493,719,38635
58200,492,697,38639
58210,492,731,38621
58220,491,819,38603
58230,496,802,38609
58240,496,795,38605
58250,492,830,38608
58260,495,839,38608
58270,494,802,38596
58280,495,795,38598
58290,494,818,38608
58300,492,806,38618
58310,493,756,38612
58320,493,739,38616
58330,494,814,38620
58340,493,808,38613
58350,495,797,38622
58360,493,830,38588
58370,496,817,38583
58380,496,792,38593
58390,495,823,38600
58400,495,836,38603
58410,496,813,38591
58420,495,765,38599
58430,492,796,38607
58440,493,785,38595
58450,491,753,38620
58460,493,694,38629
58470,493,696,38647
58480,493,693,38646
58490,492,710,38639
58500,488,744,38637
58510,495,816,38613
58520,492,836,38608
58530,493,797,38607
58540,492,816,38610
58550,498,822,38609
58560,498,840,38605
58570,502,849,38594
58580,504,823,38605
58590,505,833,38613
58600,506,786,38621
58610,509,741,38615
58620,509,823,38627
58630,509,843,38615
58640,508,792,38632
58650,509,809,38607
58660,509,836,38579
58670,510,829,38590
58680,508,837,38592
58690,508,817,38595
58700,512,807,38591
58710,511,813,38590
58720,512,797,38611
58730,510,806,38605
58740,516,790,38610
58750,518,681,38624
58760,517,706,38643
58770,522,707,38644
58780,519,691,38643
58790,520,715,38643
58800,521,710,38638
58810,519,809,38605
58820,520,781,38608
58830,517,798,38601
58840,518,805,38604
58850,515,830,38608
58860,512,832,38607
58870,515,815,38611
58880,515,794,38605
58890,517,800,38617
58900,519,826,38620
58910,516,746,38619
58920,517,799,38633
58930,517,819,38619
58940,516,824,38628
58950,518,782,38602
58960,516,826,38573
58970,518,842,38586
58980,518,808,38597
58990,518,790,38599
59000,516,822,38597
59010,514,824,38596
59020,517,793,38612
59030,514,826,38614
59040,515,789,38611
59050,517,707,38632
59060,514,588,38646
59070,514,700,38644
59080,509,726,38642
59090,505,726,38635
59100,503,719,38644
59110,501,794,38614
59120,503,799,38600
59130,500,827,38603
59140,499,857,38612
59150,500,813,38604
59160,497,838,38607
59170,500,806,38603
59180,498,799,38611
59190,498,826,38612
59200,499,851,38620
59210,498,752,38616
59220,499,746,38615
59230,498,799,38619
59240,496,810,38620
59250,497,840,38606
59260,496,858,38591
59270,496,810,38590
59280,496,829,38587
59290,496,847,38598
59300,498,827,38595
59310,498,841,38604
59320,500,818,38607
59330,500,844,38597
59340,500,780,38600
59350,499,772,38618
59360,500,718,38636
59370,501,724,38644
59380,500,759,38648
59390,498,679,38644
59400,501,738,38640
59410,502,724,38627
59420,501,781,38612
59430,501,801,38599
59440,503,890,38610
59450,505,806,38607
59460,506,851,38605
59470,507,809,38602
59480,503,820,38601
59490,505,843,38608
59500,508,802,38616
59510,506,783,38611
59520,507,755,38611
59530,507,794,38619
59540,508,824,38625
59550,507,728,38616
59560,505,790,38597
59570,503,738,38584
59580,505,841,38583
59590,502,824,38583
59600,506,850,38596
59610,504,822,38593
59620,501,819,38599
59630,502,831,38601
59640,499,815,38616
59650,502,724,38618
59660,504,709,38641
59670,500,753,38633
59680,501,680,38646
59690,502,707,38638
59700,503,745,38643
59710,504,769,38631
59720,501,794,38613
59730,501,790,38604
59740,502,847,38602
59750,504,771,38603
59760,502,800,38598
59770,504,814,38601
59780,505,841,38599
59790,502,800,38612
59800,505,792,38604
59810,504,791,38622
59820,505,720,38608
59830,505,825,38618
59840,505,824,38620
59850,507,808,38619
59860,510,794,38590
59870,508,821,38581
59880,509,798,38586
59890,509,826,38593
59900,510,838,38601
59910,509,803,38594
59920,506,800,38606
59930,510,788,38610
59940,507,767,38611
59950,510,740,38625
59960,511,725,38641
59970,512,689,38644
59980,514,686,38647
59990,511,720,38643
